;CGA;Cafeine;Fat;Trigonelline;DM;Localisation;S1;S2;S3;S4;S5;S6;S7;S8;S9;S10;S11;S12;S13;S14;S15;S16;S17;S18;S19;S20;S21;S22;S23;S24;S25;S26;S27;S28;S29;S30;S31;S32;S33;S34;S35;S36;S37;S38;S39;S40;S41;S42;S43;S44;S45;S46;S47;S48;S49;S50;S51;S52;S53;S54;S55;S56;S57;S58;S59;S60;S61;S62;S63;S64;S65;S66;S67;S68;S69;S70;S71;S72;S73;S74;S75;S76;S77;S78;S79;S80;S81;S82;S83;S84;S85;S86;S87;S88;S89;S90;S91;S92;S93;S94;S95;S96;S97;S98;S99;S100;S101;S102;S103;S104;S105;S106;S107;S108;S109;S110;S111;S112;S113;S114;S115;S116;S117;S118;S119;S120;S121;S122;S123;S124;S125;S126;S127;S128;S129;S130;S131;S132;S133;S134;S135;S136;S137;S138;S139;S140;S141;S142;S143;S144;S145;S146;S147;S148;S149;S150;S151;S152;S153;S154;S155;S156;S157;S158;S159;S160;S161;S162;S163;S164;S165;S166;S167;S168;S169;S170;S171;S172;S173;S174;S175;S176;S177;S178;S179;S180;S181;S182;S183;S184;S185;S186;S187;S188;S189;S190;S191;S192;S193;S194;S195;S196;S197;S198;S199;S200;S201;S202;S203;S204;S205;S206;S207;S208;S209;S210;S211;S212;S213;S214;S215;S216;S217;S218;S219;S220;S221;S222;S223;S224;S225;S226;S227;S228;S229;S230;S231;S232;S233;S234;S235;S236;S237;S238;S239;S240;S241;S242;S243;S244;S245;S246;S247;S248;S249;S250;S251;S252;S253;S254;S255;S256;S257;S258;S259;S260;S261;S262;S263;S264;S265;S266;S267;S268;S269;S270;S271;S272;S273;S274;S275;S276;S277;S278;S279;S280;S281;S282;S283;S284;S285;S286;S287;S288;S289;S290;S291;S292;S293;S294;S295;S296;S297;S298;S299;S300;S301;S302;S303;S304;S305;S306;S307;S308;S309;S310;S311;S312;S313;S314;S315;S316;S317;S318;S319;S320;S321;S322;S323;S324;S325;S326;S327;S328;S329;S330;S331;S332;S333;S334;S335;S336;S337;S338;S339;S340;S341;S342;S343;S344;S345;S346;S347;S348;S349;S350;S351;S352;S353;S354;S355;S356;S357;S358;S359;S360;S361;S362;S363;S364;S365;S366;S367;S368;S369;S370;S371;S372;S373;S374;S375;S376;S377;S378;S379;S380;S381;S382;S383;S384;S385;S386;S387;S388;S389;S390;S391;S392;S393;S394;S395;S396;S397;S398;S399;S400;S401;S402;S403;S404;S405;S406;S407;S408;S409;S410;S411;S412;S413;S414;S415;S416;S417;S418;S419;S420;S421;S422;S423;S424;S425;S426;S427;S428;S429;S430;S431;S432;S433;S434;S435;S436;S437;S438;S439;S440;S441;S442;S443;S444;S445;S446;S447;S448;S449;S450;S451;S452;S453;S454;S455;S456;S457;S458;S459;S460;S461;S462;S463;S464;S465;S466;S467;S468;S469;S470;S471;S472;S473;S474;S475;S476;S477;S478;S479;S480;S481;S482;S483;S484;S485;S486;S487;S488;S489;S490;S491;S492;S493;S494;S495;S496;S497;S498;S499;S500;S501;S502;S503;S504;S505;S506;S507;S508;S509;S510;S511;S512;S513;S514;S515;S516;S517;S518;S519;S520;S521;S522;S523;S524;S525;S526;S527;S528;S529;S530;S531;S532;S533;S534;S535;S536;S537;S538;S539;S540;S541;S542;S543;S544;S545;S546;S547;S548;S549;S550;S551;S552;S553;S554;S555;S556;S557;S558;S559;S560;S561;S562;S563;S564;S565;S566;S567;S568;S569;S570;S571;S572;S573;S574;S575;S576;S577;S578;S579;S580;S581;S582;S583;S584;S585;S586;S587;S588;S589;S590;S591;S592;S593;S594;S595;S596;S597;S598;S599;S600;S601;S602;S603;S604;S605;S606;S607;S608;S609;S610;S611;S612;S613;S614;S615;S616;S617;S618;S619;S620;S621;S622;S623;S624;S625;S626;S627;S628;S629;S630;S631;S632;S633;S634;S635;S636;S637;S638;S639;S640;S641;S642;S643;S644;S645;S646;S647;S648;S649;S650;S651;S652;S653;S654;S655;S656;S657;S658;S659;S660;S661;S662;S663;S664;S665;S666;S667;S668;S669;S670;S671;S672;S673;S674;S675;S676;S677;S678;S679;S680;S681;S682;S683;S684;S685;S686;S687;S688;S689;S690;S691;S692;S693;S694;S695;S696;S697;S698;S699;S700;S701;S702;S703;S704;S705;S706;S707;S708;S709;S710;S711;S712;S713;S714;S715;S716;S717;S718;S719;S720;S721;S722;S723;S724;S725;S726;S727;S728;S729;S730;S731;S732;S733;S734;S735;S736;S737;S738;S739;S740;S741;S742;S743;S744;S745;S746;S747;S748;S749;S750;S751;S752;S753;S754;S755;S756;S757;S758;S759;S760;S761;S762;S763;S764;S765;S766;S767;S768;S769;S770;S771;S772;S773;S774;S775;S776;S777;S778;S779;S780;S781;S782;S783;S784;S785;S786;S787;S788;S789;S790;S791;S792;S793;S794;S795;S796;S797;S798;S799;S800;S801;S802;S803;S804;S805;S806;S807;S808;S809;S810;S811;S812;S813;S814;S815;S816;S817;S818;S819;S820;S821;S822;S823;S824;S825;S826;S827;S828;S829;S830;S831;S832;S833;S834;S835;S836;S837;S838;S839;S840;S841;S842;S843;S844;S845;S846;S847;S848;S849;S850;S851;S852;S853;S854;S855;S856;S857;S858;S859;S860;S861;S862;S863;S864;S865;S866;S867;S868;S869;S870;S871;S872;S873;S874;S875;S876;S877;S878;S879;S880;S881;S882;S883;S884;S885;S886;S887;S888;S889;S890;S891;S892;S893;S894;S895;S896;S897;S898;S899;S900;S901;S902;S903;S904;S905;S906;S907;S908;S909;S910;S911;S912;S913;S914;S915;S916;S917;S918;S919;S920;S921;S922;S923;S924;S925;S926;S927;S928;S929;S930;S931;S932;S933;S934;S935;S936;S937;S938;S939;S940;S941;S942;S943;S944;S945;S946;S947;S948;S949;S950;S951;S952;S953;S954;S955;S956;S957;S958;S959;S960;S961;S962;S963;S964;S965;S966;S967;S968;S969;S970;S971;S972;S973;S974;S975;S976;S977;S978;S979;S980;S981;S982;S983;S984;S985;S986;S987;S988;S989;S990;S991;S992;S993;S994;S995;S996;S997;S998;S999;S1000;S1001;S1002;S1003;S1004;S1005;S1006;S1007;S1008;S1009;S1010;S1011;S1012;S1013;S1014;S1015;S1016;S1017;S1018;S1019;S1020;S1021;S1022;S1023;S1024;S1025;S1026;S1027;S1028;S1029;S1030;S1031;S1032;S1033;S1034;S1035;S1036;S1037;S1038;S1039;S1040;S1041;S1042;S1043;S1044;S1045;S1046;S1047;S1048;S1049;S1050
V2;79.308.925;10.662.341;128.580.256;0.7581199;908.732.834;1;0.5657725;0.5810649;0.5865836;0.5931965;0.6024414;0.6092045;0.6161596;0.6216736;0.6225588;0.6250553;0.6247424;0.6260743;0.6225716;0.6201975;0.6176248;0.6125886;0.6091725;0.6038993;0.5983204;0.5940966;0.5881921;0.5846879;0.5788643;0.5739292;0.5694887;0.5649627;0.5629296;0.5573766;0.5542892;0.5515679;0.5484213;0.54655;0.5441384;0.5392724;0.5349848;0.5309642;0.5277191;0.524837;0.5219244;0.5201278;0.5160266;0.5114782;0.507844;0.5046989;0.5013317;0.4976303;0.494894;0.4919245;0.4885474;0.4853226;0.4826051;0.4802967;0.4775236;0.474061;0.4731684;0.4728741;0.4714737;0.468906;0.4657054;0.4636741;0.4641302;0.4657947;0.4653674;0.463944;0.464503;0.4663833;0.4678647;0.4684422;0.4701366;0.4710045;0.4711273;0.4727838;0.4734164;0.4737278;0.4738855;0.4737029;0.4736904;0.4730563;0.4723698;0.4715058;0.4702543;0.468177;0.4656995;0.4629381;0.4604397;0.4582856;0.4569915;0.4563999;0.4568345;0.4577368;0.4592271;0.4599164;0.4600859;0.4595555;0.4588763;0.4577776;0.4566247;0.4558864;0.4556184;0.4559762;0.4569352;0.4578264;0.4587707;0.4591339;0.4585331;0.4576284;0.4566067;0.4550368;0.4534415;0.452088;0.4509937;0.450175;0.4495234;0.4489067;0.4479477;0.4468063;0.4453454;0.4438721;0.4423826;0.4409318;0.4394737;0.4379907;0.4365371;0.4349906;0.43344;0.4319042;0.4303157;0.4286367;0.4268559;0.4249012;0.4229489;0.4208237;0.4184449;0.4160462;0.4132999;0.4102112;0.4068717;0.4032401;0.3993869;0.3954089;0.3913707;0.3872124;0.3830193;0.3788684;0.374855;0.3709314;0.3670969;0.3633749;0.3597173;0.356196;0.3528647;0.3496305;0.346453;0.3433919;0.3403573;0.3374063;0.3345168;0.3315667;0.3286945;0.3257784;0.3229063;0.320142;0.3173349;0.314425;0.3115898;0.3088363;0.3061411;0.303515;0.3009169;0.2983264;0.2959039;0.2934581;0.291003;0.2885723;0.286071;0.283592;0.281059;0.2787171;0.2765179;0.274371;0.2720973;0.2696201;0.2669361;0.2642714;0.2615851;0.258519;0.2556654;0.2535825;0.2520387;0.2505539;0.2487935;0.2468242;0.2447721;0.2427045;0.2406608;0.238672;0.2366964;0.234742;0.2328346;0.2309274;0.2290551;0.2272169;0.2254003;0.2236362;0.2219087;0.2201849;0.2185102;0.2168793;0.2152717;0.2137002;0.2121529;0.2106246;0.2091311;0.2076676;0.2062348;0.2048418;0.203468;0.2021177;0.2007995;0.1995;0.1982358;0.1969953;0.1957572;0.1945515;0.1933773;0.1922063;0.1910729;0.1899838;0.188925;0.1879047;0.1869137;0.1859435;0.1850158;0.1841189;0.1832487;0.1824389;0.1816473;0.1808709;0.1801251;0.1794426;0.1788257;0.1783045;0.1777795;0.1773104;0.1768935;0.1765258;0.1762107;0.1759299;0.1757483;0.1755607;0.1754;0.1752134;0.1750867;0.1749922;0.1749027;0.1748111;0.174709;0.1745394;0.1743154;0.1740706;0.1738542;0.1735761;0.1732248;0.1728474;0.1724286;0.1719496;0.1714191;0.1708649;0.170315;0.1697642;0.1691589;0.1685358;0.1679938;0.1675727;0.1672888;0.1671304;0.1670978;0.1671825;0.1673976;0.1677396;0.1681862;0.168749;0.1694259;0.1701934;0.1710546;0.1720234;0.1730228;0.1740666;0.1751125;0.176105;0.1770982;0.1780207;0.178855;0.1796276;0.1802665;0.1808057;0.1812374;0.1815332;0.1817221;0.1818172;0.1818215;0.181735;0.1815788;0.1813565;0.1810719;0.180781;0.1804345;0.1800265;0.1796003;0.1791488;0.1786506;0.1781487;0.1776465;0.1770951;0.1764675;0.1758005;0.1751505;0.1745299;0.1739284;0.1733336;0.1727339;0.1721106;0.1714702;0.1708769;0.1702805;0.169691;0.1691185;0.1685431;0.1679779;0.1673681;0.1667652;0.1661828;0.1655527;0.1649767;0.1644128;0.163867;0.1633755;0.1628476;0.1623143;0.161831;0.1613948;0.1609636;0.1605297;0.1600916;0.1596873;0.1593005;0.1589086;0.1585562;0.1582762;0.1580904;0.1454435;0.1454553;0.1455002;0.1455928;0.1457184;0.1458854;0.1460899;0.1463657;0.1467424;0.1472263;0.1478335;0.1486181;0.1496284;0.1509286;0.1524863;0.1542862;0.1563466;0.1586386;0.1611384;0.1638365;0.1666843;0.1697289;0.1729857;0.1764111;0.1800754;0.18393;0.1879447;0.1921342;0.1963616;0.2005868;0.2047486;0.2086817;0.212364;0.2157763;0.2189743;0.2220744;0.2251124;0.2281803;0.2313654;0.2346244;0.2379472;0.2412864;0.2444404;0.247408;0.2501049;0.2525224;0.25467;0.2565651;0.2582602;0.2597946;0.2611375;0.2622945;0.2632087;0.2637629;0.2638932;0.2635257;0.262578;0.2610412;0.2589793;0.2564348;0.2535426;0.2504935;0.2473573;0.244292;0.2413878;0.2386398;0.2361364;0.2338244;0.2316791;0.2297013;0.2278485;0.2261162;0.2244964;0.2229784;0.221584;0.2202694;0.2190514;0.2179404;0.2168984;0.2159293;0.2150605;0.2142377;0.2134777;0.2127464;0.2120247;0.2113108;0.2105807;0.209862;0.2091542;0.2084337;0.2077198;0.2070277;0.2063334;0.2056965;0.20512;0.2046102;0.2041956;0.20387;0.203656;0.2035484;0.2035503;0.2036495;0.2038828;0.2042259;0.2047184;0.2053361;0.2060946;0.2070126;0.2081173;0.209385;0.2108544;0.2125294;0.2144004;0.2165187;0.2188156;0.2213421;0.2240913;0.2270182;0.230183;0.2334278;0.236806;0.240305;0.2438777;0.2476332;0.2515024;0.2554337;0.2595046;0.2635494;0.26756;0.2715782;0.2754115;0.2791341;0.2827221;0.2861459;0.2895333;0.2927861;0.2960206;0.299297;0.3026362;0.3062514;0.3101576;0.3144617;0.3192982;0.3245403;0.3302809;0.336414;0.3428828;0.3498923;0.3573946;0.3654855;0.3745171;0.3840662;0.3944899;0.4054057;0.4167454;0.4285942;0.4404315;0.4524659;0.4646825;0.4765938;0.4883626;0.4995454;0.510187;0.5203032;0.5296827;0.5384576;0.5466186;0.5539904;0.5608165;0.5668381;0.5722259;0.5770045;0.5811022;0.5847284;0.5878063;0.590453;0.5926981;0.5946304;0.5962267;0.5975915;0.5986796;0.5995554;0.6002108;0.6006072;0.6007806;0.6007391;0.6004246;0.5998915;0.5991761;0.5981919;0.5970651;0.5957344;0.5942481;0.5927016;0.5910262;0.5893145;0.5875704;0.5857632;0.5838616;0.5818526;0.5798289;0.577742;0.5756987;0.5736594;0.5715852;0.5695575;0.5675519;0.5655631;0.5635445;0.5616062;0.5597749;0.5580172;0.556371;0.5548051;0.5533267;0.5519537;0.5507442;0.5496305;0.5486633;0.5476556;0.5467935;0.5460247;0.5453166;0.544683;0.5440636;0.5434875;0.5429525;0.5424301;0.5419207;0.5414565;0.5410091;0.540628;0.5402301;0.539788;0.5393062;0.5387087;0.5380087;0.5372429;0.5363665;0.5353749;0.5342856;0.5330902;0.5317986;0.5304186;0.5289454;0.5273522;0.5257173;0.5239761;0.5221589;0.5202946;0.5183805;0.5164364;0.5144512;0.5124759;0.5105536;0.5086427;0.5068038;0.5049883;0.5031921;0.5014195;0.4995706;0.4977004;0.4958137;0.4939567;0.492191;0.4904649;0.4888628;0.4873082;0.4857676;0.4842922;0.4828461;0.4814552;0.4801593;0.4789576;0.4778982;0.4770104;0.4763122;0.4758538;0.4756074;0.4756271;0.4758877;0.4762322;0.4767102;0.4772134;0.4778318;0.4786603;0.4796326;0.4809139;0.4824716;0.484385;0.4866769;0.4893864;0.4926273;0.4962367;0.5002372;0.5044382;0.5087304;0.5130896;0.5174806;0.5220141;0.5267349;0.5313973;0.5359291;0.5401561;0.5439591;0.5473981;0.5505516;0.5533977;0.5560437;0.5585598;0.5609279;0.5629836;0.5647033;0.5657904;0.5658405;0.5650375;0.5631518;0.5606283;0.5579303;0.5553462;0.5532702;0.5518195;0.5510715;0.5509261;0.5512432;0.5519578;0.552875;0.5539132;0.5548398;0.5555759;0.5558719;0.5555239;0.5545714;0.5529259;0.5508877;0.5486993;0.5465402;0.5445496;0.5428399;0.5412935;0.5399352;0.5387539;0.5376883;0.536761;0.5359007;0.5350825;0.5342923;0.5334439;0.5325557;0.5315938;0.5305677;0.5295272;0.5284765;0.5274294;0.5264189;0.5254595;0.5244674;0.523468;0.5224261;0.5213053;0.5201148;0.51884;0.5174976;0.5160942;0.5146313;0.5131567;0.5116259;0.5100467;0.5084926;0.5069687;0.5054492;0.5039625;0.5025838;0.5013268;0.5002297;0.4993245;0.4986555;0.4983188;0.4983037;0.4986069;0.4992344;0.5002599;0.5017135;0.5036817;0.5061924;0.5093432;0.5132132;0.5178617;0.5234002;0.5298081;0.5373192;0.5459844;0.5558506;0.5671221;0.5798036;0.5938472;0.6092469;0.6259184;0.6435861;0.6621017;0.6811026;0.7003171;0.7194816;0.738086;0.7559727;0.7728274;0.7887326;0.8034914;0.8171122;0.8295671;0.840645;0.8505442;0.8591328;0.8664123;0.8723099;0.8769683;0.8803967;0.8824984;0.8834702;0.8834471;0.8824419;0.8805517;0.8779319;0.8747537;0.8709913;0.8668809;0.8624927;0.857873;0.8530902;0.8482395;0.8432465;0.8382947;0.8332996;0.8283518;0.8234081;0.8184605;0.8136359;0.8087273;0.8038368;0.7989016;0.793987;0.7891273;0.7842274;0.7793872;0.7746721;0.7700998;0.7657394;0.7615811;0.7576612;0.7540346;0.7507257;0.747771;0.7451453;0.7429767;0.7412612;0.7399492;0.7390717;0.7386472;0.7386681;0.7391919;0.7401624;0.7415947;0.7434527;0.7458385;0.7485498;0.7516438;0.7550728;0.7587979;0.7627636;0.7669427;0.7712891;0.7757224;0.7802025;0.7846459;0.7889477;0.7930767;0.7970505;0.8007023;0.8041857;0.8071848;0.8099853;0.8123775;0.8145695;0.8166469;0.81847;0.8203433;0.8220274;0.8237979;0.8253986;0.8270378;0.8285879;0.8300366;0.8314723;0.8327757;0.8340803;0.8352491;0.8363846;0.8374397;0.8384178;0.8393544;0.8401264;0.8408051;0.8413714;0.8418064;0.8420895;0.8422933;0.8424629;0.8425503;0.8425071;0.842304;0.8419584;0.8414991;0.8408578;0.8402302;0.8393664;0.838497;0.8375242;0.8366086;0.8357097;0.8350649;0.8342214;0.8331683;0.8319747;0.830519;0.8289964;0.8271683;0.8253212;0.8233232;0.8214064;0.8195108;0.8177102;0.815819;0.8139278;0.8120035;0.8100283;0.8081203;0.8060769;0.8039255;0.8016352;0.7993391;0.7968931;0.7944989;0.7919488;0.7892855;0.7866669;0.7840442;0.7814917;0.7790021;0.7765839;0.7742396;0.7719951;0.7697899;0.7676597;0.7656099;0.7636968;0.7618722;0.7602071;0.7587692;0.7574282;0.7563776;0.7555159;0.7549614;0.7546953;0.7548177;0.7553996;0.7563472;0.7578878;0.7599027;0.7625741;0.7657065;0.7695158;0.7738792;0.7789062;0.7844731;0.7906042;0.7971855;0.8041303;0.8114282;0.8188378;0.8264945;0.834085;0.8416716;0.8491313;0.8563868;0.8632339;0.8695937;0.8752195;0.880141;0.8843774;0.8882069;0.8915514;0.8945631;0.8973835;0.9001338;0.9027699;0.9056495;0.9087943;0.9126964;0.9172056;0.9220717;0.9273605;0.9326594;0.9374465;0.9410258;0.942789;0.9424265;0.9398355;0.9358279;0.9313285;0.927438;0.9247581;0.9231596;0.922451;0.9224094;0.9228741;0.92371;0.9251065;0.9269826;0.9296742;0.9329274;0.9367731;0.9407135;0.9443565;0.9468144;0.9473325;0.9458885;0.9427509;0.938908;0.9355422;0.933094;0.9317278;0.9312137;0.9312192;0.9314215;0.9315999;0.9316462;0.9316307;0.9316182;0.9317368;0.9319853;0.9324328;0.9328912;0.9332349;0.9337105;0.9343328;0.9351029;0.9359589;0.9369112;0.9378786;0.9390794;0.9404989;0.9420623;0.9436874;0.9456266;0.9478527;0.9502391;0.95272;0.9553095;0.9581692;0.9610664;0.9640184;0.9671299;0.9704083;0.9738083;0.9772615;0.9806842;0.9842738;0.9882374;0.9923118;0.9963341;10.003.221;10.042.933;10.084.598;10.127.443;10.168.644;10.211.276;10.253.921;10.297.689;10.342.927;10.385.814;10.427.622;10.466.721;10.504.204;10.539.484;10.575.006;10.607.285;10.639.396;10.667.762;10.694.581;10.718.852;1.074.248;10.763.905;10.780.941;10.794.626;10.808.052;10.818.887;1.082.563;10.831.281;10.833.163;10.832.742
V3;76.995.125;11.530.044;124.704.638;0.7608271;904.887.695;1;0.540741;0.5517752;0.5613955;0.5679256;0.577262;0.5852257;0.5882435;0.5906298;0.5929186;0.5955672;0.5938127;0.5911869;0.5891264;0.5861281;0.5848741;0.5801219;0.5746758;0.5703937;0.56594;0.5609526;0.5565027;0.5506504;0.5460727;0.5419893;0.5373058;0.533784;0.5309728;0.5271049;0.5225767;0.5195061;0.5156201;0.5119736;0.5093396;0.5067244;0.5033363;0.4997456;0.4961871;0.4929753;0.4893003;0.4860366;0.4818347;0.4783973;0.4759826;0.4727233;0.4706154;0.4669131;0.4629262;0.4594443;0.4569985;0.4536285;0.4501271;0.4476357;0.4452719;0.4424321;0.4395342;0.4377509;0.4350815;0.4330456;0.4308732;0.4285538;0.4282308;0.4287135;0.4290759;0.4292384;0.4289042;0.4295938;0.4312495;0.4316476;0.4314097;0.4319438;0.4326295;0.4332165;0.43316;0.4333648;0.4336812;0.4329964;0.4323854;0.4317988;0.4308873;0.4298022;0.4286616;0.4265903;0.4239201;0.4214554;0.4190151;0.4169934;0.415851;0.415447;0.4154952;0.41613;0.416981;0.4178445;0.4178088;0.4172767;0.4165547;0.4156186;0.4146468;0.4139213;0.4136321;0.4140278;0.4148108;0.4155618;0.4162756;0.4163203;0.4158051;0.4149591;0.4139607;0.4126192;0.4110642;0.4097432;0.4088356;0.4079779;0.407255;0.4066554;0.4059986;0.4049373;0.4037206;0.4025477;0.4014641;0.40043;0.3993243;0.3982984;0.397395;0.3964167;0.3954264;0.3945923;0.3936507;0.3926529;0.3915962;0.3903686;0.3890767;0.3875982;0.3857046;0.3835711;0.3809679;0.377967;0.374546;0.3706858;0.3666228;0.3623724;0.3579703;0.3534633;0.3489566;0.3445408;0.3403271;0.3362578;0.3323306;0.3285914;0.3249754;0.3215072;0.3182239;0.3150973;0.3120478;0.3091236;0.3062802;0.3035188;0.3008205;0.2981364;0.2956443;0.2929876;0.2902949;0.2876933;0.2851191;0.2825079;0.2799655;0.2774788;0.2750793;0.2727489;0.2704573;0.2681777;0.2660606;0.2638993;0.2617527;0.259632;0.2574301;0.2551953;0.2530682;0.2510043;0.2490633;0.2471938;0.2451623;0.2429098;0.2404564;0.2380317;0.2355745;0.2327684;0.2303063;0.2285777;0.2273027;0.2260767;0.2245345;0.2227391;0.2208908;0.2190493;0.2172223;0.2154436;0.2136712;0.2119313;0.210232;0.2085262;0.2068145;0.2051823;0.2035805;0.2020054;0.200465;0.1989318;0.1974331;0.1959697;0.1945349;0.1931373;0.1917662;0.1904063;0.1890761;0.1877769;0.1864984;0.1852491;0.1840291;0.1828255;0.1816455;0.1804869;0.1793519;0.1782484;0.1771494;0.1760721;0.175027;0.1739875;0.1729772;0.1720043;0.171062;0.1701587;0.1692838;0.1684375;0.1676304;0.1668496;0.1661023;0.1654287;0.1647966;0.1641433;0.1635262;0.1629632;0.1624649;0.162023;0.1616324;0.1612992;0.1610213;0.1608059;0.1606373;0.160506;0.1604673;0.1604192;0.1603979;0.1603565;0.1603778;0.1604325;0.1604935;0.1605159;0.1605368;0.1604792;0.1603679;0.1602524;0.1600913;0.1598756;0.1596007;0.1593027;0.1589531;0.1585376;0.158071;0.1575965;0.1571191;0.1566056;0.1560541;0.1555055;0.1550323;0.1547002;0.1545234;0.1544756;0.1545632;0.1547784;0.1551432;0.1556436;0.1562553;0.1569861;0.1578403;0.1587923;0.1598258;0.1609578;0.1621255;0.1633341;0.164539;0.1656934;0.1668094;0.1678564;0.1687945;0.1696686;0.170395;0.1710155;0.1715207;0.1718816;0.1721319;0.1722761;0.1723269;0.1722844;0.1721683;0.1719867;0.1717596;0.1715017;0.1711996;0.1708138;0.1704032;0.1699745;0.1695075;0.169029;0.168539;0.1680018;0.167392;0.1667308;0.1660775;0.1654609;0.164862;0.1642706;0.1636843;0.1630763;0.1624411;0.1618227;0.1612197;0.1606268;0.1600578;0.1594898;0.1589059;0.1582939;0.157687;0.1570967;0.156499;0.1558786;0.1553131;0.1547492;0.1542153;0.1537163;0.1531964;0.1527089;0.1522563;0.1518281;0.1513925;0.1509545;0.1505608;0.1501967;0.1498149;0.1494635;0.149186;0.1490078;0.1371094;0.1371505;0.1372294;0.1373613;0.1375137;0.1377207;0.137981;0.1383011;0.1387057;0.1392365;0.1399076;0.1407708;0.1418632;0.1432594;0.1449331;0.1468758;0.1491175;0.151596;0.1542936;0.1572019;0.1602734;0.1635422;0.1670249;0.1706633;0.174528;0.1785706;0.1827594;0.1871013;0.1914582;0.1957848;0.2000306;0.2040327;0.2077719;0.2112439;0.2144907;0.2176271;0.2206974;0.223781;0.226972;0.2302157;0.2335139;0.2368167;0.2399203;0.2428185;0.2454472;0.2478046;0.2498915;0.2517181;0.2533399;0.2548085;0.2560868;0.2571754;0.2580198;0.2585211;0.2586135;0.2582212;0.2572791;0.2557765;0.2537855;0.2513331;0.2485417;0.2456103;0.2425957;0.2396495;0.2368619;0.2342037;0.2317753;0.2295418;0.2274376;0.2255005;0.2236842;0.2219908;0.22041;0.2189122;0.2175425;0.2162506;0.2150419;0.2139486;0.2129346;0.2119969;0.2111359;0.2103258;0.2095915;0.2088904;0.208196;0.2074915;0.2067873;0.2060827;0.2053987;0.2047034;0.204009;0.2033239;0.202648;0.2020265;0.2014563;0.200962;0.200562;0.2002599;0.2000716;0.1999792;0.2000067;0.2001329;0.2003954;0.2007814;0.2013037;0.2019614;0.2027676;0.2037309;0.2048807;0.2061906;0.2077159;0.2094202;0.2113434;0.2135129;0.2158432;0.2184107;0.2211929;0.2241389;0.2273268;0.2306024;0.2339715;0.2374613;0.2410252;0.2447316;0.2485521;0.2524187;0.2564175;0.2603756;0.2642945;0.2682048;0.2719456;0.2755743;0.2790688;0.2824036;0.2857001;0.2888592;0.2920169;0.2952071;0.2984645;0.3019876;0.3058141;0.3100105;0.3147669;0.3198852;0.3254823;0.3315017;0.3378542;0.3447471;0.3521023;0.3600046;0.3688105;0.3780596;0.388114;0.3986145;0.4094628;0.4207685;0.4319951;0.4433751;0.4548919;0.466079;0.4770804;0.4875168;0.4974333;0.5068257;0.5155094;0.5236266;0.5311673;0.5379546;0.5442345;0.5497738;0.5547217;0.5590975;0.562829;0.5661433;0.5689916;0.5714343;0.5734887;0.575256;0.5767132;0.5779575;0.5789542;0.5797604;0.5803473;0.5806955;0.5808707;0.580819;0.580525;0.5800255;0.5793585;0.5784453;0.5774054;0.5761582;0.574774;0.5733067;0.5717339;0.5701371;0.5684901;0.566781;0.5649835;0.563098;0.5612235;0.5592803;0.5573832;0.5554724;0.5535473;0.5516828;0.5498136;0.547989;0.5461269;0.544351;0.5426548;0.5409973;0.53944;0.5379694;0.5365952;0.5352967;0.5341212;0.533045;0.532113;0.5311485;0.5303157;0.529559;0.5288502;0.5282123;0.5275884;0.5270122;0.5264766;0.5259364;0.5254365;0.5250036;0.5245813;0.5242013;0.5238141;0.523384;0.5229014;0.5223206;0.5216548;0.5209475;0.5201377;0.5192076;0.5181797;0.5170659;0.5158674;0.5145686;0.513172;0.5116743;0.5101309;0.5084894;0.5067745;0.5050163;0.5032166;0.5013765;0.4994958;0.4976212;0.4958061;0.494009;0.4922603;0.4905309;0.4888534;0.4871663;0.4854173;0.4836541;0.4818845;0.4801141;0.4784199;0.4767736;0.4752272;0.4737229;0.4722529;0.4708261;0.4694193;0.4680907;0.4668149;0.465638;0.46458;0.4636951;0.4629683;0.4624775;0.4621745;0.4621104;0.4622748;0.4625371;0.462927;0.4633631;0.4639259;0.464721;0.4656704;0.4669325;0.4684684;0.4703326;0.4725347;0.4751236;0.4781823;0.4815895;0.4853508;0.4892816;0.4932915;0.4973544;0.5014295;0.5056361;0.5100018;0.5143036;0.5184817;0.5223707;0.5258788;0.5290633;0.5319748;0.5345932;0.5370205;0.5393172;0.5415128;0.5434259;0.5450237;0.5460547;0.5461397;0.5454658;0.5438052;0.5415647;0.539167;0.5368411;0.5349903;0.533694;0.5330412;0.5329092;0.5331746;0.5337769;0.5345458;0.5354519;0.5362258;0.5368318;0.5370069;0.5366325;0.5357125;0.5341954;0.53229;0.5302569;0.5282484;0.5264086;0.5248302;0.5234;0.5221379;0.5210466;0.5200535;0.5192043;0.5183868;0.5176223;0.516858;0.5160595;0.5152072;0.5143069;0.5133463;0.512358;0.5113726;0.510379;0.5094149;0.5085048;0.507561;0.506616;0.5056459;0.504599;0.5034826;0.5022907;0.5010346;0.4997308;0.4983789;0.4970002;0.4955693;0.494098;0.4926379;0.4912293;0.48983;0.4884821;0.4872062;0.4860471;0.4850614;0.4842777;0.4837033;0.483454;0.4835076;0.4838493;0.4845251;0.4855762;0.4870446;0.4890046;0.491497;0.4946085;0.498402;0.5029522;0.5083464;0.5145611;0.5218377;0.5302182;0.5397232;0.5505424;0.5626803;0.5760804;0.5907274;0.6065072;0.6231713;0.6406031;0.6584128;0.6763851;0.6942889;0.7116777;0.7283348;0.7440085;0.758748;0.7724107;0.7850528;0.7966319;0.8069505;0.8161858;0.8241687;0.8309582;0.8364464;0.840805;0.8440322;0.8459934;0.8469232;0.8469149;0.8459735;0.8442084;0.8418061;0.8388125;0.8353052;0.8314616;0.8273798;0.823072;0.8186148;0.8140675;0.8094008;0.8047811;0.8001471;0.7955326;0.790905;0.7862924;0.7817985;0.7772474;0.7726714;0.7680306;0.7634332;0.7588885;0.7543175;0.7497888;0.7453529;0.741081;0.736965;0.7330725;0.7294087;0.7259585;0.7228088;0.7199839;0.7175159;0.7154312;0.7137064;0.7123818;0.7114769;0.7109361;0.7108635;0.7111902;0.7119661;0.7131401;0.714738;0.7167949;0.7191893;0.721925;0.7249761;0.7283089;0.7318868;0.7356352;0.7395483;0.7435834;0.7476249;0.7516583;0.755606;0.7593365;0.7629291;0.7662512;0.7693611;0.7720461;0.7745917;0.7767044;0.7786256;0.780444;0.7820239;0.7836437;0.7850955;0.7866148;0.7880689;0.7895381;0.7908789;0.7921496;0.7934341;0.7946148;0.7957563;0.7967951;0.7977864;0.7987424;0.7995628;0.8003789;0.8010567;0.8016189;0.8021379;0.8024702;0.8026761;0.8028437;0.8029824;0.8029883;0.8029252;0.8027348;0.8023912;0.8019259;0.8013527;0.8006896;0.7998675;0.7990248;0.7980828;0.7973098;0.7965037;0.7959027;0.7950624;0.7941554;0.7931328;0.7919071;0.7905453;0.7889075;0.7872106;0.785431;0.7837735;0.7820735;0.7804396;0.7787935;0.7770531;0.775368;0.773577;0.7718866;0.7700546;0.7681039;0.7660781;0.7639514;0.7617608;0.7595711;0.7571946;0.7547871;0.7524218;0.7499958;0.7476915;0.7454591;0.7432587;0.7411156;0.7390872;0.7371057;0.7350956;0.7332853;0.7315127;0.7298887;0.7283548;0.7269403;0.7257556;0.7247313;0.7240103;0.7234598;0.7232561;0.7233403;0.7238587;0.7247316;0.7262222;0.7281063;0.7305701;0.7334746;0.7370079;0.7411118;0.7457094;0.7509653;0.7565535;0.7625955;0.7690619;0.7757795;0.7826341;0.7896931;0.7966861;0.8036901;0.8105873;0.817308;0.8236803;0.829541;0.8347136;0.839219;0.8429988;0.8464846;0.8495069;0.8522997;0.8548347;0.8571615;0.8595808;0.8622238;0.8652083;0.868762;0.8729484;0.8774904;0.882351;0.8871404;0.8915876;0.8948328;0.8964857;0.8962439;0.8938535;0.8902288;0.8861716;0.8826655;0.8802615;0.8787544;0.8781675;0.8782164;0.8786856;0.8794031;0.8807442;0.8824964;0.8849764;0.88793;0.8914345;0.8950289;0.8983953;0.9006203;0.901154;0.8997996;0.8969789;0.8935295;0.8904641;0.8883317;0.8871171;0.8866611;0.886687;0.886936;0.8871047;0.8871298;0.8870301;0.8870573;0.887221;0.887368;0.8877662;0.8882239;0.8886013;0.8891498;0.8896825;0.8903985;0.8912261;0.8920823;0.8930836;0.8941539;0.8955351;0.8969547;0.8986132;0.9005252;0.9026286;0.9048797;0.9072731;0.9097879;0.9123946;0.9151657;0.9179953;0.9208721;0.923954;0.9270847;0.9303203;0.9336619;0.9370088;0.9405822;0.9444128;0.9481416;0.9520577;0.9559203;0.9598282;0.9638061;0.967846;0.9719566;0.976077;0.9802374;0.9845219;0.9885476;0.992382;0.996083;0.9995535;10.029.708;10.062.413;10.094.215;10.124.855;10.153.798;10.179.588;10.202.457;10.224.841;10.245.595;10.262.696;10.276.462;10.288.088;10.298.867;10.307.902;10.314.248;10.316.249;10.316.219
V4;79.261.389;10.834.132;127.914.581;0.8023662;89.974.617;6;0.5696084;0.5882876;0.5985136;0.603366;0.6142604;0.6220179;0.6293268;0.6358794;0.642103;0.6427085;0.6438949;0.6447636;0.6460053;0.6446262;0.6412976;0.6372843;0.6314341;0.6295401;0.6260706;0.6176749;0.6135855;0.6089487;0.6030967;0.5991676;0.5952254;0.5899829;0.5849431;0.580978;0.5774457;0.5750787;0.569989;0.5668395;0.563484;0.5597879;0.5557282;0.5517766;0.5480981;0.5445879;0.5406075;0.5377155;0.5329131;0.528973;0.5255852;0.5228783;0.5200542;0.5151725;0.5105979;0.5075641;0.5042151;0.5012638;0.4998677;0.4990178;0.4958658;0.4912952;0.4884802;0.4867247;0.4853339;0.483693;0.4815769;0.4794994;0.4794422;0.4798264;0.4795874;0.4804358;0.4816011;0.4814012;0.4829241;0.4847006;0.4859199;0.4878149;0.4893622;0.4895155;0.4902976;0.4906361;0.4915927;0.49152;0.4909394;0.4910519;0.490302;0.4896285;0.488179;0.4858057;0.4830286;0.4803455;0.477844;0.4756067;0.4741359;0.4736471;0.4742561;0.4755194;0.476559;0.4775936;0.4780104;0.4772778;0.4761461;0.4751138;0.473956;0.4730592;0.4730141;0.4735113;0.4742227;0.4752163;0.4760214;0.4762469;0.4759037;0.4748408;0.473573;0.4719953;0.470374;0.4690163;0.4678487;0.4668784;0.4661072;0.4653846;0.4644734;0.4632119;0.461661;0.4599999;0.4584388;0.4569024;0.4553162;0.4536758;0.4520363;0.4503096;0.4485767;0.4468673;0.4450331;0.4431854;0.4413017;0.4391919;0.4371262;0.4348674;0.432368;0.4298078;0.4269714;0.4237984;0.4202209;0.4163101;0.4120765;0.4076799;0.4030874;0.3983142;0.39349;0.3886693;0.3839486;0.3793244;0.3748288;0.3704608;0.3661767;0.3620812;0.3581968;0.3544644;0.3507931;0.3472499;0.3437506;0.3403245;0.3370093;0.3336487;0.3303634;0.3270324;0.3237421;0.3206151;0.3174194;0.3141749;0.3109888;0.3078874;0.3048663;0.3019169;0.2990101;0.2961092;0.2933798;0.2906119;0.2878603;0.2851665;0.2823784;0.2796271;0.2768242;0.274139;0.2716039;0.2690988;0.2664883;0.2636946;0.2607068;0.2577145;0.2547312;0.2513435;0.2481816;0.245801;0.2440014;0.2422823;0.2402643;0.2379664;0.2356165;0.233279;0.2309652;0.2286978;0.2264422;0.2242182;0.222046;0.2198879;0.2177752;0.2156862;0.2136044;0.2115905;0.2096342;0.2076768;0.2057702;0.2039161;0.2020903;0.2002996;0.198542;0.1968008;0.1951106;0.1934701;0.1918488;0.1902655;0.1887101;0.1871731;0.1856835;0.184224;0.182798;0.1814132;0.1800276;0.178665;0.1773429;0.1760441;0.1747867;0.1735792;0.1723998;0.1712742;0.1701811;0.1691273;0.1681209;0.167149;0.1662331;0.1653804;0.1645811;0.1638051;0.1630479;0.1623738;0.1617616;0.1612412;0.1607724;0.1603731;0.1600515;0.1597948;0.1596072;0.159456;0.1594281;0.1593918;0.1593939;0.1593961;0.1594717;0.159587;0.1596971;0.1597968;0.1598914;0.1598965;0.1598327;0.1597807;0.1596635;0.1594851;0.1592292;0.1589376;0.1585777;0.1581309;0.1576051;0.1570465;0.1564765;0.155876;0.1552182;0.1545686;0.1540293;0.1536551;0.1534701;0.1534535;0.1536134;0.1539416;0.1544541;0.1551398;0.155967;0.1569497;0.158075;0.1593124;0.1606614;0.1621378;0.1636405;0.1651812;0.1667045;0.1681448;0.1695452;0.1708408;0.1720037;0.1730839;0.1739814;0.1747483;0.1753648;0.1758128;0.1761157;0.1762847;0.1763337;0.176276;0.1761143;0.1758744;0.1755791;0.1752365;0.1748094;0.1743197;0.1738066;0.1732623;0.1726605;0.1720399;0.171412;0.1707314;0.1699769;0.1691775;0.1683882;0.1676397;0.1669105;0.1661838;0.1654635;0.164722;0.1639457;0.1632078;0.162482;0.1617595;0.1610601;0.1603722;0.1596614;0.1589337;0.1582067;0.1575068;0.1567963;0.1560683;0.155395;0.1547239;0.1541255;0.1535026;0.1528732;0.1523067;0.1517841;0.1512811;0.1507716;0.1502524;0.1497925;0.1493824;0.1489445;0.1485509;0.1482528;0.1480564;0.1367621;0.1368651;0.1370043;0.1371956;0.1374118;0.1376782;0.1380093;0.1384203;0.1389449;0.1396249;0.1404823;0.141575;0.1429453;0.1446756;0.1467468;0.1491268;0.1518545;0.1548809;0.1581696;0.1617132;0.1654441;0.1694196;0.1736544;0.1780736;0.1827562;0.1876521;0.1927158;0.1979426;0.2031679;0.2083404;0.2133958;0.2181244;0.2225277;0.2265978;0.2303811;0.2340248;0.2375978;0.2411959;0.2449129;0.2487106;0.2525761;0.2564632;0.2601384;0.2636006;0.2667666;0.2696121;0.2721514;0.2743958;0.2764204;0.2782576;0.2798737;0.2812701;0.2823762;0.2830765;0.2832765;0.2828853;0.2818185;0.2800743;0.2777165;0.2747927;0.2714458;0.2679166;0.2642732;0.2607179;0.2573451;0.2541487;0.2512281;0.2485285;0.2460055;0.2436936;0.241536;0.2395215;0.2376368;0.2358649;0.2342333;0.2327079;0.23127;0.2299596;0.2287311;0.2275856;0.2265472;0.2255657;0.2246541;0.2237735;0.2228991;0.2220437;0.2211709;0.2203251;0.2195009;0.2186756;0.2178552;0.2170565;0.2162846;0.2155758;0.2149576;0.2144211;0.2139862;0.2136711;0.2134896;0.2134437;0.2135246;0.2137363;0.2141007;0.214608;0.2152833;0.2161094;0.2171159;0.2183186;0.2197446;0.2213608;0.2232246;0.2253285;0.2276621;0.2302993;0.2331274;0.2362244;0.2395614;0.2430691;0.2468564;0.2507266;0.2547165;0.2588535;0.2630496;0.2674008;0.2718556;0.276363;0.281005;0.2855726;0.2901129;0.2946554;0.2989888;0.3032041;0.3072562;0.3111568;0.3150207;0.3187467;0.3224662;0.3262163;0.3301117;0.334352;0.3389412;0.3440229;0.3497739;0.3559676;0.3627505;0.3700141;0.3776607;0.3859297;0.3947361;0.4041838;0.4146701;0.4256288;0.4374921;0.4498956;0.4626749;0.4759959;0.4891911;0.5025245;0.5159792;0.5290637;0.5418862;0.5539758;0.5654184;0.5761814;0.5861042;0.5953065;0.6037902;0.6114528;0.6185384;0.6247789;0.6303363;0.6352655;0.639443;0.6431517;0.646301;0.6489809;0.6512365;0.6531687;0.654737;0.656092;0.6571412;0.6579624;0.658555;0.6588488;0.6589149;0.6587508;0.6583047;0.657604;0.6567034;0.6555223;0.6541538;0.6525789;0.6508262;0.6489933;0.6470286;0.6450462;0.6429949;0.6409011;0.6387048;0.6363857;0.6340766;0.6317092;0.6293718;0.6270351;0.6246767;0.6223958;0.6201153;0.6178939;0.6156642;0.6135252;0.6114981;0.6095603;0.607752;0.6060469;0.6044334;0.6029265;0.6016058;0.6003796;0.5993506;0.5982839;0.5973591;0.5965483;0.5958087;0.5951416;0.5944552;0.5938007;0.5932221;0.5926446;0.5920696;0.591535;0.5910095;0.5905662;0.5901039;0.5895426;0.5889489;0.5882393;0.5874479;0.5866052;0.5856518;0.5845773;0.5833858;0.5820999;0.5807186;0.5792912;0.5777321;0.5760282;0.5742921;0.5724369;0.570509;0.5685325;0.5665026;0.5644603;0.5623683;0.5603001;0.5582942;0.5563;0.5543918;0.5525139;0.5506829;0.5488487;0.5469197;0.5449345;0.5428975;0.5408703;0.5389324;0.537062;0.5353369;0.5336757;0.53202;0.5304369;0.528892;0.527401;0.5260023;0.524708;0.5235519;0.5225915;0.5218219;0.5213016;0.520989;0.5209522;0.5211822;0.5215005;0.521957;0.5224259;0.5230151;0.52382;0.5247705;0.5260704;0.5276734;0.5296584;0.5320671;0.5349113;0.5383102;0.5420933;0.5462993;0.5506984;0.5552007;0.5597587;0.564388;0.5691949;0.5742202;0.5792117;0.5840775;0.5886336;0.5927515;0.5964993;0.5999278;0.6030373;0.6059241;0.6086746;0.6112769;0.6135161;0.6154069;0.6166176;0.6166838;0.6158386;0.6138054;0.6110985;0.6082212;0.6054284;0.6032208;0.6016924;0.6009588;0.6008856;0.60132;0.6021741;0.6032372;0.6044539;0.6055453;0.6064276;0.6068146;0.6065333;0.6055939;0.6039093;0.6018052;0.5995423;0.5972692;0.595188;0.5934092;0.5917953;0.5903798;0.5891607;0.5880442;0.5870903;0.5861833;0.5853359;0.5845057;0.583622;0.5827014;0.5817001;0.5806121;0.5795027;0.5783942;0.5773015;0.5762103;0.5751823;0.574133;0.5730602;0.5719697;0.5707823;0.5695179;0.5681519;0.5667396;0.5652618;0.5637362;0.5621768;0.5605649;0.5589153;0.5572795;0.5556761;0.5541179;0.5525931;0.5511804;0.5499202;0.5488474;0.5479853;0.5473891;0.5471465;0.547329;0.5478314;0.5486856;0.5500183;0.5518427;0.5542467;0.5572694;0.5610163;0.5655832;0.5710179;0.5774314;0.5848535;0.593501;0.6034179;0.6146103;0.6273398;0.6415679;0.6572079;0.674229;0.6925296;0.711774;0.7318112;0.7520867;0.772458;0.7927304;0.8123301;0.8310699;0.8486015;0.8650146;0.8801218;0.8940034;0.9066313;0.9178355;0.9278623;0.9364583;0.9437726;0.9496584;0.954313;0.9577828;0.9598328;0.960768;0.9606825;0.9596335;0.9576733;0.9550505;0.9517987;0.9479669;0.9437552;0.9392278;0.9344944;0.9296203;0.9246124;0.9194381;0.9143423;0.9091408;0.9039696;0.8987283;0.8935006;0.8883666;0.8831859;0.877981;0.8727183;0.8674917;0.8623146;0.8571546;0.8520961;0.8471078;0.8422446;0.8375686;0.8331691;0.8289686;0.8250374;0.8214639;0.8182309;0.8153166;0.8128604;0.8108395;0.8092375;0.80805;0.8073021;0.8070536;0.8072814;0.8079365;0.8090417;0.810585;0.8126792;0.8150944;0.8178412;0.8209677;0.8243786;0.8280323;0.8318644;0.8358613;0.8400083;0.8441977;0.8483669;0.8524088;0.8563128;0.8600913;0.8635577;0.8668972;0.8698484;0.8725818;0.8749024;0.8770731;0.879105;0.8808975;0.8827775;0.8844491;0.8862045;0.8877988;0.8894351;0.8910136;0.8924308;0.8938764;0.8951824;0.8964422;0.8975979;0.8986923;0.8996762;0.9006104;0.9014944;0.9022262;0.9028378;0.9033676;0.9037172;0.9039719;0.9041156;0.9042217;0.9042201;0.9041517;0.9039058;0.9035124;0.9029548;0.9022475;0.9015242;0.9005899;0.8996201;0.8985445;0.897544;0.8965774;0.8958272;0.8948225;0.8936465;0.8923062;0.8907827;0.8892049;0.8872725;0.8853312;0.8831798;0.8811542;0.8791615;0.8772606;0.8752205;0.8731722;0.8711193;0.8689826;0.8669974;0.864813;0.8626295;0.8602627;0.8578249;0.8554033;0.8529382;0.8502188;0.8475136;0.8448622;0.8422241;0.8395907;0.8370588;0.8346349;0.8322226;0.8300281;0.8277802;0.8256518;0.8236074;0.821703;0.819975;0.8183268;0.8169358;0.8156942;0.8147354;0.8140177;0.8135795;0.8133856;0.8136667;0.8144278;0.8155265;0.8172411;0.8193996;0.8222005;0.8255914;0.8296375;0.8342202;0.8393815;0.845157;0.8514686;0.8582051;0.8653101;0.8727478;0.8802303;0.8879327;0.8956829;0.9033584;0.9108393;0.9181351;0.9250392;0.9313879;0.9369891;0.9420044;0.9461002;0.9498716;0.9532145;0.9563628;0.95906;0.9617037;0.9644536;0.9673136;0.9705793;0.9746206;0.9792251;0.9843293;0.9897269;0.995158;10.001.123;10.037.116;10.055.584;10.052.828;10.026.643;0.9986231;0.9942042;0.9903474;0.9877098;0.9861047;0.9855043;0.9855069;0.9861489;0.9870228;0.9884011;0.9904861;0.9931512;0.9964266;10.003.926;1.004.474;1.008.153;1.010.811;10.114.571;10.100.132;1.006.933;10.031.615;0.9998972;0.9975612;0.9963543;0.9959805;0.9960857;0.9965048;0.9968984;0.9970834;0.9971424;0.9972717;0.997445;0.9977651;0.9983155;0.9989204;0.9995099;10.000.968;10.008.523;10.015.996;10.026.138;10.036.817;10.047.468;10.060.066;10.075.407;10.091.249;10.108.434;10.129.243;10.152.797;10.177.439;10.202.773;10.229.331;10.257.841;10.287.253;10.317.559;10.348.552;10.380.346;10.414.182;10.448.527;10.481.981;10.517.529;10.554.973;10.593.154;10.632.463;10.671.384;10.711.012;10.751.687;10.792.516;10.833.493;10.875.473;10.916.755;1.095.952;11.003.757;11.044.619;11.083.266;11.120.934;11.158.056;11.192.466;11.224.848;11.256.787;11.288.753;1.131.837;11.342.905;11.365.595;11.387.097;1.140.589;11.422.144;11.436.344;11.447.128;11.458.104;11.464.578;11.469.799;1.147.347;11.473.656
V5;81.232.853;13.900.521;134.207.811;0.8113176;918.358.231;4;0.5369611;0.5491945;0.5592511;0.5661616;0.5747381;0.584438;0.5880998;0.5909036;0.5939504;0.596276;0.5958715;0.5928434;0.5918558;0.5884421;0.5888408;0.5830974;0.5775813;0.5731638;0.5685934;0.5638307;0.5587098;0.5527611;0.5475004;0.5436981;0.5383355;0.5347714;0.5316443;0.5285997;0.5231617;0.5203956;0.516369;0.512831;0.5102132;0.5079805;0.5048453;0.5011498;0.4978521;0.4944887;0.4910604;0.4879865;0.4841913;0.4816184;0.4786026;0.475314;0.4736605;0.4704404;0.4654483;0.4627526;0.4607061;0.4571529;0.4540793;0.451939;0.4501412;0.4466275;0.4433249;0.4413958;0.4394722;0.4378782;0.4356581;0.4333926;0.4331985;0.4337315;0.4337475;0.4347462;0.4342932;0.4342727;0.4362438;0.4375014;0.4367258;0.4366615;0.4377342;0.4384575;0.4390495;0.4389608;0.4393022;0.4385297;0.4379269;0.4369157;0.4358779;0.4346227;0.4334789;0.4313227;0.4286163;0.4259553;0.4232522;0.4211845;0.4195718;0.4191894;0.4192489;0.4196048;0.42019;0.4207489;0.4205891;0.4197354;0.4187189;0.4174078;0.4159104;0.4147848;0.4142162;0.4143389;0.4147306;0.4150621;0.4153798;0.4152173;0.4143145;0.413084;0.411824;0.4102414;0.4085488;0.4070865;0.4058519;0.4045798;0.4036309;0.4026459;0.4015619;0.3999964;0.3982491;0.3964407;0.3946461;0.3927399;0.3907374;0.3886953;0.3867206;0.3845907;0.3824255;0.3802167;0.3779085;0.3755618;0.3732301;0.3707763;0.3683336;0.3658738;0.3633371;0.3608888;0.3583538;0.3557456;0.3529935;0.3501471;0.3472986;0.3444114;0.3414447;0.3383749;0.3352043;0.3320331;0.3289155;0.3258237;0.3227578;0.3197213;0.3166533;0.3136632;0.3108196;0.3080752;0.3053727;0.3027655;0.3001944;0.2976504;0.2951758;0.2927114;0.2903847;0.2878392;0.2852926;0.2827961;0.2803226;0.2777999;0.2753398;0.2729325;0.2705865;0.2683111;0.2660539;0.2638104;0.2617109;0.259551;0.2574281;0.2553197;0.2531186;0.250866;0.248734;0.2466729;0.2447456;0.2428908;0.2408751;0.2386287;0.2361904;0.2337832;0.2313024;0.2284618;0.2259502;0.2241323;0.2228159;0.221543;0.2199821;0.2181478;0.2162575;0.2143696;0.2124989;0.2106884;0.2088714;0.2070982;0.2053462;0.2035974;0.2018465;0.200176;0.1985289;0.1969101;0.1953304;0.1937596;0.1922195;0.190725;0.1892682;0.1878407;0.1864194;0.1850152;0.1836609;0.1823373;0.1810292;0.1797576;0.1785137;0.1772819;0.1760803;0.1749041;0.1737578;0.1726432;0.1715357;0.1704553;0.1693955;0.1683514;0.1673423;0.1663765;0.1654413;0.1645556;0.1636953;0.1628671;0.1620801;0.1613281;0.1606447;0.1600035;0.1593771;0.1587482;0.1581655;0.1576404;0.1571745;0.15677;0.1564213;0.1561291;0.155889;0.1557134;0.1555965;0.1555128;0.1555338;0.1555371;0.1555772;0.1556197;0.1557045;0.1558321;0.1559636;0.1560694;0.1561641;0.1561827;0.1561724;0.1561083;0.1560088;0.1558528;0.1556379;0.1553765;0.1550647;0.1546727;0.1542174;0.1537417;0.1532514;0.1527169;0.1521313;0.1515449;0.1510407;0.1506739;0.1504542;0.1503646;0.1504114;0.1505875;0.1509143;0.1513722;0.1519494;0.1526545;0.1534944;0.1544612;0.1555271;0.1567017;0.157928;0.1591956;0.1604709;0.1616964;0.1628955;0.1640186;0.165035;0.1659971;0.1668084;0.1675061;0.1680996;0.1685539;0.1688917;0.1691271;0.1692711;0.1693285;0.1693055;0.1692175;0.1690992;0.1689449;0.168746;0.1684809;0.1681771;0.1678535;0.1674951;0.1671243;0.1667425;0.1663127;0.1658112;0.1652628;0.1647208;0.1642087;0.1637168;0.1632366;0.1627553;0.162251;0.161713;0.161181;0.160677;0.1601728;0.1596863;0.1592066;0.1586987;0.1581646;0.1576323;0.1571059;0.156593;0.1560513;0.1555589;0.1550772;0.1546091;0.1541729;0.1537213;0.1532883;0.1528979;0.1525327;0.1521398;0.1517565;0.1514151;0.1511018;0.1507722;0.1504703;0.1502454;0.1501197;0.141647;0.1417469;0.1418882;0.1420726;0.1422771;0.142535;0.142839;0.1432098;0.1436851;0.1442831;0.1450235;0.1459596;0.1471244;0.1485859;0.1503218;0.1523187;0.1545933;0.1570703;0.1597335;0.1625659;0.1655121;0.1686127;0.171885;0.175284;0.1788832;0.1826567;0.1865811;0.1906826;0.1948247;0.1989564;0.2030396;0.2068963;0.2104959;0.2138172;0.2169203;0.2199177;0.2228505;0.2258102;0.2288863;0.2320343;0.2352506;0.2384778;0.2415189;0.244368;0.2469625;0.2492869;0.2513487;0.2531764;0.2548092;0.2562986;0.2576102;0.2587457;0.2596502;0.2602235;0.2603856;0.2600598;0.2591779;0.257726;0.2557631;0.2533292;0.2505482;0.2476189;0.2445896;0.2416328;0.2388376;0.2361996;0.233798;0.2315816;0.2295007;0.2275994;0.2258112;0.2241462;0.2226065;0.2211419;0.2198067;0.2185561;0.2173912;0.2163449;0.2153907;0.2145048;0.2137068;0.2129554;0.2122741;0.211635;0.2109815;0.2103239;0.2096573;0.2090014;0.2083499;0.2076788;0.207014;0.2063403;0.2056713;0.2050537;0.2044824;0.2039738;0.2035563;0.2032132;0.2029871;0.2028403;0.2028092;0.2028715;0.2030538;0.2033457;0.203756;0.2042875;0.2049532;0.2057749;0.2067616;0.2078785;0.2092184;0.2107187;0.2124312;0.2143649;0.2164606;0.2187977;0.2213381;0.2240463;0.2269855;0.2300367;0.2331901;0.236486;0.2398244;0.2433454;0.2469768;0.250686;0.2545193;0.258306;0.2620651;0.2658214;0.269395;0.2728486;0.2761724;0.2793326;0.2824409;0.2854083;0.2883476;0.2912858;0.2942548;0.2974376;0.3008559;0.3046029;0.3088148;0.3132589;0.3180861;0.3232318;0.3285997;0.3343738;0.3405451;0.3472399;0.3547649;0.3627482;0.3715403;0.3808158;0.3904878;0.4006678;0.4108644;0.4212468;0.4317873;0.442146;0.4523641;0.4620713;0.4713122;0.4800575;0.4881442;0.4956665;0.5026745;0.5089869;0.5148179;0.5199779;0.5245568;0.5286221;0.5320836;0.5351405;0.5377515;0.5399927;0.5418518;0.5434675;0.5447896;0.5459302;0.546838;0.5475814;0.5481303;0.5484774;0.5486551;0.5486693;0.5484653;0.5480825;0.5475595;0.5468193;0.5459782;0.5449779;0.5438669;0.5426977;0.5414252;0.5401562;0.5388196;0.5374352;0.5359548;0.5343348;0.5327463;0.5311286;0.5295363;0.5279295;0.5263086;0.5247119;0.5231153;0.5215616;0.5199427;0.5183882;0.5169193;0.5154999;0.5141587;0.5128993;0.5116867;0.5105551;0.5095652;0.508643;0.5078787;0.5070615;0.5063742;0.5057632;0.5052052;0.5046844;0.5041918;0.5037436;0.5033544;0.5029823;0.5026614;0.5023361;0.5020372;0.5017833;0.5015157;0.5011798;0.5008208;0.5003694;0.4998403;0.499259;0.4985634;0.497773;0.4968876;0.4958993;0.494836;0.4936926;0.4924423;0.491102;0.4897173;0.488251;0.4867115;0.48513;0.483497;0.4818507;0.4801813;0.4785195;0.4769299;0.4753585;0.4738401;0.4723521;0.470909;0.4694649;0.4679692;0.4664558;0.4649175;0.4633555;0.4618382;0.4603649;0.4590017;0.4576903;0.4564224;0.4552046;0.4539987;0.4528387;0.4517533;0.45077;0.449914;0.4492346;0.4487093;0.4484033;0.4483157;0.4484536;0.4488195;0.4492728;0.4498653;0.4505064;0.4512545;0.4522163;0.4533139;0.4546906;0.4562985;0.4581887;0.4603745;0.4628831;0.4658235;0.4690945;0.4727038;0.4764897;0.480386;0.4843528;0.4883427;0.492459;0.4967416;0.5009711;0.5050813;0.5089111;0.512361;0.5154765;0.5183039;0.5208415;0.5231937;0.5254089;0.5274814;0.5292524;0.5307035;0.531575;0.5315032;0.530663;0.5288375;0.5264526;0.5239069;0.5214428;0.5194646;0.5180618;0.5173114;0.5170973;0.5172991;0.5178415;0.5185731;0.5194054;0.5201284;0.5206668;0.5208063;0.5203755;0.5193993;0.5178345;0.5158935;0.5138238;0.5117849;0.5099131;0.5083055;0.5068577;0.5056017;0.504532;0.5035576;0.5027548;0.5020236;0.5013307;0.5006619;0.499983;0.4992545;0.4984543;0.4975824;0.4967116;0.4958421;0.4949663;0.4940924;0.4932765;0.4924423;0.4915842;0.490716;0.4897612;0.4887264;0.4876311;0.4864768;0.4852563;0.4839958;0.4826936;0.4813637;0.4799969;0.4786317;0.4772899;0.4759438;0.4746364;0.4733821;0.4722205;0.471205;0.4703635;0.4697124;0.4693323;0.4692136;0.4693294;0.4696962;0.4703798;0.4713933;0.472823;0.4746906;0.4770494;0.4799802;0.4835205;0.4877862;0.4927555;0.4985946;0.5053962;0.5131507;0.5220588;0.5321085;0.5432653;0.5555413;0.5688365;0.5829738;0.5978774;0.6131895;0.6286928;0.64418;0.6593198;0.6739067;0.6876547;0.7006351;0.712694;0.7238351;0.7339897;0.7430225;0.7511553;0.7582154;0.7642146;0.769094;0.7729362;0.7757849;0.7774869;0.7782943;0.7782485;0.7773631;0.7757583;0.7735733;0.7709176;0.7678224;0.7644383;0.7608283;0.757051;0.7531697;0.7492461;0.7452309;0.741275;0.7373355;0.7334121;0.7295335;0.7256818;0.7219605;0.7182032;0.7144057;0.7105547;0.7067276;0.7029516;0.6991474;0.6953648;0.6916588;0.6881225;0.6847273;0.681541;0.6785467;0.6757359;0.6732399;0.6710787;0.6691671;0.6676388;0.6665297;0.6657688;0.6653956;0.6653812;0.6658233;0.666648;0.6679097;0.6695169;0.6715286;0.6739411;0.676681;0.6796925;0.6829716;0.6864864;0.6902092;0.6941476;0.6982087;0.7023708;0.7065319;0.7106439;0.7146266;0.7184074;0.722;0.72532;0.7284155;0.7311367;0.7335658;0.735653;0.7375432;0.7393373;0.7408683;0.7424166;0.743834;0.7453074;0.7466965;0.748106;0.7494496;0.7507128;0.7519583;0.7531428;0.7542916;0.7553645;0.7564005;0.7573424;0.758257;0.7591196;0.7598622;0.7605082;0.7610596;0.7614854;0.7618091;0.7620844;0.7623126;0.7623938;0.7624085;0.7623255;0.7621258;0.7618051;0.761347;0.7608495;0.7601517;0.759446;0.7586844;0.758018;0.7573599;0.7569236;0.7563133;0.7555718;0.7546419;0.7535518;0.7524504;0.7510096;0.7495199;0.7479869;0.7465096;0.7450156;0.743599;0.7421423;0.7406533;0.7391312;0.7376009;0.7361495;0.7344767;0.7327819;0.7309451;0.7291062;0.7271028;0.7251335;0.7230227;0.720852;0.7187116;0.7165998;0.7145515;0.7125487;0.7106422;0.7088063;0.7069997;0.7052467;0.7035562;0.701955;0.7004314;0.6990097;0.6977568;0.6966327;0.6956455;0.6948967;0.6943415;0.6940365;0.6940034;0.6943083;0.6949747;0.6960237;0.6975891;0.6994932;0.7019521;0.7048619;0.7083191;0.7122316;0.7166622;0.7215497;0.7267815;0.7323904;0.7382827;0.7444885;0.7506934;0.7570324;0.7633498;0.76965;0.7758057;0.7817843;0.787472;0.7926557;0.797272;0.8013527;0.8047941;0.8080454;0.8108847;0.8135372;0.8159807;0.818356;0.8206924;0.8231456;0.8259755;0.8293357;0.8332493;0.8374994;0.8419431;0.8463764;0.8504263;0.8533277;0.854662;0.854099;0.851722;0.8480197;0.8439354;0.8404205;0.8379229;0.8363315;0.8356743;0.8355426;0.8359288;0.8364866;0.8376285;0.839329;0.8415514;0.8443724;0.8476765;0.8509914;0.8540095;0.8560336;0.8564538;0.855033;0.8521829;0.8487342;0.8457118;0.8434477;0.8421663;0.8415655;0.8413725;0.8414091;0.8414809;0.8412645;0.8410401;0.8409311;0.8408763;0.8409538;0.8412066;0.8414709;0.8417188;0.8420594;0.8424441;0.8429174;0.8435206;0.8441573;0.8448948;0.8457237;0.8467221;0.8477941;0.8490667;0.8506173;0.8523934;0.8542314;0.8561284;0.8582114;0.8605393;0.8628657;0.8652151;0.8677303;0.8703459;0.8730662;0.8758621;0.8787419;0.881608;0.8846967;0.8879523;0.8911828;0.8944723;0.8977906;0.9011874;0.9046786;0.9081729;0.9117593;0.9153113;0.9190401;0.9227538;0.9263836;0.9298166;0.9332266;0.9364566;0.9394336;0.9423547;0.9451035;0.9478356;0.9502556;0.9525501;0.9546168;0.9564844;0.9582521;0.9596805;0.9607287;0.9616653;0.9625403;0.9631827;0.9634653;0.9635785;0.9635086
V6;73.146.029;11.802.186;128.195.286;0.8306411;905.551.453;1;0.5673122;0.5842389;0.590537;0.5958761;0.6054771;0.6121871;0.6192299;0.6252103;0.626825;0.6279777;0.6284984;0.6291646;0.6288725;0.6247548;0.6241449;0.616791;0.614874;0.6090162;0.6040079;0.5995831;0.5943385;0.5898536;0.5846433;0.5805317;0.5745774;0.571468;0.567997;0.5645877;0.5597867;0.5571115;0.5535613;0.5513162;0.5485681;0.5460895;0.5424008;0.5381611;0.5347387;0.5319185;0.5286542;0.5253358;0.5205122;0.5162838;0.5134565;0.510243;0.5073102;0.504279;0.5001913;0.4968992;0.4936795;0.490598;0.4877443;0.4854043;0.4841831;0.4826482;0.4805167;0.4773943;0.4748729;0.4733983;0.4711116;0.4693663;0.4694217;0.4695812;0.4705203;0.4712349;0.4698986;0.4718803;0.4731777;0.4749073;0.4759492;0.4778869;0.4782118;0.4786848;0.4792046;0.4799004;0.4810006;0.4804004;0.4801565;0.4798265;0.4795319;0.4785537;0.4774139;0.4752475;0.472694;0.4698943;0.4673432;0.465171;0.4637743;0.463912;0.4645263;0.4655208;0.4668357;0.4680214;0.4680694;0.4676663;0.4669479;0.466015;0.4649365;0.4642324;0.464288;0.4646413;0.4657706;0.4668559;0.4676701;0.4679841;0.4676378;0.4668103;0.4657639;0.4642283;0.4627294;0.4614207;0.4603347;0.4593474;0.458635;0.4579808;0.4572055;0.4559353;0.4544897;0.4529791;0.4515068;0.4500836;0.448633;0.4471885;0.445783;0.444318;0.4428812;0.4414786;0.4399605;0.438386;0.4367313;0.4348109;0.4328372;0.4307343;0.4282987;0.4257353;0.4228356;0.4195902;0.4160148;0.4121049;0.4079245;0.4036264;0.3992311;0.3948045;0.3903483;0.3859516;0.3817273;0.3775997;0.3735798;0.3696821;0.3658712;0.3621888;0.3587074;0.3553444;0.3520467;0.3488264;0.345677;0.3425911;0.3395666;0.3365174;0.3335225;0.3304452;0.3274088;0.3245272;0.3216029;0.3185816;0.3156279;0.312705;0.3098859;0.3071338;0.3044005;0.3016973;0.2991548;0.2965494;0.2940023;0.291462;0.2888431;0.2862712;0.2836332;0.2811324;0.2787818;0.2764823;0.274074;0.2714749;0.268663;0.2658673;0.2630593;0.2598906;0.2569317;0.2547448;0.2531009;0.2515288;0.2496812;0.2476182;0.2454966;0.2433591;0.2412307;0.239148;0.2370906;0.2350596;0.2330718;0.2310969;0.229154;0.2272563;0.2253718;0.223548;0.2217689;0.2199935;0.2182652;0.2165844;0.214933;0.2133173;0.2117296;0.2101604;0.2086333;0.2071512;0.2056912;0.2042698;0.2028765;0.2015082;0.2001791;0.1988683;0.1975919;0.1963469;0.1951065;0.193895;0.1927198;0.1915513;0.1904141;0.1893364;0.1882932;0.1872891;0.1863205;0.1853806;0.1844861;0.183625;0.1828072;0.1820487;0.1813046;0.1805882;0.1799094;0.1792913;0.1787551;0.178316;0.1778769;0.1775047;0.1771912;0.1769403;0.176748;0.1765976;0.1765533;0.1765011;0.1764857;0.1764497;0.1764699;0.1765299;0.1765866;0.1766383;0.1766701;0.1766209;0.1765054;0.1763599;0.1762269;0.1760357;0.1757653;0.1754562;0.1750968;0.1746658;0.1741728;0.1736538;0.1731318;0.1726019;0.1720209;0.1714306;0.1709349;0.1705779;0.1703701;0.1703026;0.1703844;0.1706053;0.1709817;0.1715022;0.1721412;0.1729104;0.1738064;0.1748098;0.175915;0.1771364;0.1783868;0.1796845;0.1809797;0.1822073;0.1834065;0.1845265;0.1855483;0.1864932;0.1872783;0.1879595;0.1885122;0.1889274;0.1892151;0.1893888;0.1894618;0.189429;0.1893014;0.189119;0.1889012;0.1886536;0.1883418;0.1879613;0.1875534;0.1871165;0.186633;0.1861367;0.1856256;0.1850601;0.1844193;0.1837394;0.1830727;0.1824323;0.1818099;0.1811863;0.1805471;0.1798875;0.1792636;0.1786415;0.1780187;0.1774059;0.1768047;0.1762077;0.1756065;0.1749642;0.1743238;0.1736644;0.1730586;0.172452;0.171853;0.1712743;0.1707455;0.1701807;0.1696477;0.1691435;0.1686782;0.1682369;0.1677937;0.1673473;0.1669375;0.1665158;0.1661343;0.1658213;0.165561;0.1653927;0.1519596;0.1520341;0.1521308;0.1522709;0.1524313;0.1526218;0.1528671;0.1532;0.1536346;0.1541919;0.1548946;0.1558052;0.1569632;0.1584443;0.1602389;0.1623129;0.1646882;0.1673274;0.170193;0.1732799;0.1765356;0.1799934;0.1836719;0.1875182;0.1916106;0.1959159;0.2003982;0.2050645;0.2097677;0.2144771;0.2191329;0.223527;0.2276484;0.2314865;0.2350816;0.2385678;0.2419902;0.2454402;0.2490106;0.2526479;0.2563575;0.2600779;0.2635793;0.2668672;0.269847;0.2725039;0.2748559;0.2769061;0.2787297;0.280381;0.2818201;0.2830436;0.2840027;0.2845726;0.2846872;0.2842595;0.2832052;0.2815193;0.2792641;0.2764895;0.2733291;0.2699989;0.2665768;0.2632389;0.2600757;0.2570829;0.2543426;0.2518089;0.2494548;0.2472948;0.245263;0.2433712;0.2416042;0.2399444;0.2384239;0.2369859;0.2356527;0.2344419;0.2333118;0.2322557;0.2313143;0.2304263;0.2296101;0.2288246;0.2280476;0.2272936;0.2265157;0.2257454;0.2249811;0.2241998;0.2234241;0.222657;0.221907;0.2212145;0.2205846;0.2200381;0.2195894;0.2192437;0.2190171;0.2189094;0.2189196;0.219062;0.219344;0.2197447;0.2203068;0.2210267;0.2219014;0.2229526;0.2241983;0.2256301;0.2272887;0.2291715;0.2312764;0.2336499;0.2362322;0.2390536;0.2420863;0.2453405;0.2488636;0.2524719;0.2562223;0.2601176;0.2640993;0.2682596;0.2725379;0.276887;0.2813753;0.2858105;0.2902216;0.2946287;0.2988342;0.3029115;0.3068437;0.3106205;0.3143335;0.3179079;0.3214616;0.3250161;0.3286708;0.3326344;0.3369131;0.3416451;0.3469834;0.3527409;0.3590498;0.3657998;0.3729038;0.3806063;0.3888275;0.3976887;0.4075429;0.4179098;0.4292081;0.4409997;0.4532262;0.4660297;0.4787622;0.4916614;0.5047232;0.5174584;0.5299835;0.5418448;0.5530609;0.5636445;0.5734025;0.5824962;0.5909495;0.598516;0.6055004;0.6117044;0.6172459;0.6221665;0.6263681;0.6300876;0.6332873;0.6360524;0.6383664;0.6403634;0.6420301;0.6434631;0.6446123;0.6455309;0.6462109;0.6466325;0.6468385;0.6468052;0.6465147;0.6459858;0.6452681;0.6442777;0.6431327;0.6417949;0.6402846;0.6387108;0.6370042;0.6352931;0.6335087;0.6316696;0.6297061;0.627632;0.6255428;0.6233887;0.6212745;0.6191118;0.616933;0.6148345;0.6127153;0.6106378;0.6085427;0.6065516;0.6046679;0.6028438;0.6011613;0.5995568;0.5980301;0.5966073;0.5953481;0.5941979;0.5931809;0.5921465;0.5912674;0.590493;0.5897672;0.5890988;0.5884398;0.5878147;0.5872347;0.5866612;0.5861017;0.5855953;0.5851102;0.584711;0.5842931;0.5837719;0.5832505;0.582604;0.5818709;0.5810992;0.5801948;0.5791818;0.5780601;0.5768479;0.5755436;0.5741442;0.5726109;0.5709537;0.5692388;0.5674194;0.5655341;0.5635803;0.5615815;0.5595549;0.5574744;0.5554263;0.5534546;0.5514975;0.5496247;0.5477708;0.5459628;0.544163;0.5422902;0.5403525;0.5383533;0.5363425;0.5344117;0.5325352;0.5308013;0.5291284;0.5274861;0.5259023;0.524359;0.5228809;0.5214721;0.5201581;0.5190127;0.5180666;0.517314;0.5168084;0.5165662;0.5166016;0.5169162;0.5173337;0.5179139;0.5185189;0.5192446;0.5201842;0.5212612;0.5226817;0.5243846;0.5264688;0.5289468;0.5318543;0.5352817;0.5390768;0.5432476;0.5475826;0.5520081;0.5564778;0.5609415;0.5655642;0.5703909;0.5751696;0.5798175;0.5841537;0.5880801;0.59164;0.5949158;0.5978845;0.6006463;0.6032753;0.6057495;0.6078831;0.609662;0.610814;0.6108738;0.6101006;0.6081749;0.6056179;0.6028882;0.6002091;0.5980785;0.5965558;0.5957643;0.5955758;0.5958464;0.5965215;0.5973946;0.5984011;0.5992803;0.5999838;0.6002102;0.5998123;0.5987902;0.5970742;0.5949377;0.5926674;0.5903928;0.5882978;0.5864956;0.584884;0.5834568;0.5822119;0.5810915;0.5801267;0.5792201;0.5783571;0.5775141;0.576618;0.5756718;0.5746746;0.573596;0.5724956;0.5713829;0.5702833;0.5692098;0.568191;0.5671481;0.5660973;0.5650104;0.5638325;0.5625736;0.5612257;0.5598304;0.5583676;0.5568612;0.5553078;0.5536944;0.5520343;0.5503861;0.5487745;0.5471934;0.5456493;0.5441839;0.5428731;0.5417618;0.5408605;0.5401961;0.5398773;0.5399359;0.5403332;0.5410544;0.5422353;0.5438794;0.5460635;0.5488511;0.5523006;0.5565343;0.5615893;0.5676129;0.5745808;0.5826926;0.5920817;0.602677;0.6147205;0.6282071;0.6430586;0.6592597;0.6766751;0.6950058;0.7141287;0.7335585;0.7529286;0.7722471;0.7909738;0.808916;0.8256625;0.8413694;0.8558795;0.8692254;0.8813416;0.8920966;0.9017054;0.9100099;0.9170781;0.9227935;0.9273288;0.9307224;0.9328276;0.9339012;0.9339705;0.9330899;0.9313338;0.928928;0.9259715;0.9224856;0.91862;0.9144874;0.9101193;0.9055854;0.9009457;0.8961709;0.891417;0.886641;0.8819046;0.8770943;0.8722656;0.8676034;0.8628092;0.8580205;0.8531594;0.8483066;0.8435393;0.838723;0.83394;0.829226;0.8246735;0.820298;0.8161418;0.8122025;0.8084973;0.8051654;0.8021353;0.7994707;0.7971911;0.7953624;0.7939577;0.7929469;0.7923616;0.7923217;0.7927094;0.7935324;0.7948066;0.7965136;0.7987452;0.8012881;0.804179;0.8074152;0.810972;0.8148062;0.8188136;0.8229893;0.8272305;0.8315177;0.8358083;0.8399508;0.8439366;0.8477197;0.8512062;0.8545042;0.8573574;0.8600702;0.8622807;0.864269;0.8662063;0.8678302;0.8695599;0.8710893;0.8727236;0.8742536;0.8757846;0.8772609;0.8786032;0.8799253;0.8811275;0.8823342;0.8834383;0.8844878;0.8855131;0.8864059;0.8872961;0.88802;0.8886204;0.8891865;0.8895748;0.8898202;0.8900006;0.8901774;0.8902323;0.8902418;0.890074;0.8897814;0.8893101;0.8887783;0.8881073;0.8872796;0.8865147;0.8856018;0.8848135;0.8839599;0.8833361;0.8824832;0.8814461;0.8803945;0.8790491;0.8777104;0.8760421;0.8743686;0.8725581;0.8708225;0.8691409;0.8674917;0.8657274;0.86391;0.8620747;0.8601952;0.858326;0.8562749;0.8541849;0.8519741;0.8497264;0.8473529;0.845088;0.8426598;0.8400257;0.8375512;0.8350199;0.8325898;0.8301972;0.8279084;0.8256564;0.8234605;0.8213295;0.8192526;0.8172771;0.8154019;0.8136667;0.8120465;0.8105859;0.8093089;0.8082169;0.807407;0.8069215;0.8066032;0.8068034;0.8074257;0.8083638;0.8098844;0.8118705;0.8145121;0.8176332;0.8215367;0.8258796;0.8309293;0.8365512;0.8426324;0.8491708;0.8560422;0.8633077;0.8705703;0.8779035;0.8853281;0.8927346;0.8999013;0.9069015;0.9135479;0.9196861;0.9250433;0.9296748;0.9335951;0.9371229;0.9402514;0.9430932;0.9456352;0.9482023;0.950676;0.9533691;0.956441;0.9601568;0.9645694;0.9691964;0.9742607;0.9791972;0.9837072;0.9869922;0.9886241;0.988306;0.9858333;0.9819988;0.9778131;0.9741243;0.9716338;0.9700305;0.969429;0.9694965;0.9699656;0.9707171;0.9720854;0.9738708;0.9764005;0.979473;0.9831286;0.9870183;0.9904389;0.9927471;0.993365;0.9921274;0.9891266;0.9855362;0.9823665;0.980112;0.9789486;0.9785348;0.9786395;0.9788805;0.9791065;0.9791796;0.9791245;0.9791682;0.9792326;0.9794064;0.979854;0.9803935;0.9808185;0.9812838;0.9819191;0.9826819;0.9834546;0.9843876;0.9854158;0.9865631;0.9879041;0.9893533;0.9909557;0.9928628;0.9950634;0.9972184;0.9995477;10.020.477;10.046.705;10.073.651;10.101.218;10.128.804;10.159.091;10.190.892;10.223.246;1.025.444;10.288.181;10.324.126;10.359.881;1.039.627;10.434.649;10.471.884;10.509.783;10.548.425;10.587.608;10.627.477;10.666.867;10.707.352;10.748.494;10.786.072;10.823.848;10.859.241;10.894.852;1.092.694;10.957.093;10.986.735;11.016.353;11.042.316;11.066.095;11.087.357;11.107.495;1.112.766;11.143.056;11.155.561;11.167.421;11.177.654;11.184.094;11.189.507;11.193.626;11.194.143
V7;80.300.665;10.366.493;123.060.341;0.8545167;898.593.445;6;0.5766454;0.5950571;0.6102527;0.6173801;0.6229173;0.6326299;0.6399902;0.6459497;0.6528178;0.6593354;0.657433;0.6590213;0.6598616;0.6608309;0.6585255;0.6552166;0.6513614;0.6464641;0.6451766;0.6400217;0.6344849;0.6296457;0.6251771;0.6199312;0.6161069;0.6123928;0.6094875;0.604284;0.5999243;0.5968972;0.593551;0.5909588;0.5883057;0.5843759;0.5798475;0.5752735;0.5711965;0.5676268;0.5638413;0.5611922;0.5567862;0.5517375;0.5476592;0.5439879;0.5406671;0.5351592;0.5312674;0.5293901;0.5268061;0.5219561;0.5185781;0.5161314;0.5135371;0.5089978;0.5054655;0.5033309;0.5009813;0.4987388;0.4966829;0.4944483;0.4942019;0.4946747;0.4950117;0.4960036;0.4963217;0.4973176;0.4978198;0.5002195;0.5013299;0.5025991;0.5048745;0.5047242;0.5054368;0.5061477;0.5062848;0.5066321;0.5059416;0.5052002;0.5047865;0.5031847;0.5021791;0.5001134;0.4965406;0.4938637;0.4908639;0.488618;0.4871725;0.4866211;0.4871976;0.4881021;0.4893326;0.4903021;0.4905637;0.4898869;0.4888288;0.4875044;0.486311;0.4854697;0.485158;0.4855012;0.4864193;0.4873191;0.4881421;0.4883944;0.4880283;0.4870758;0.4856741;0.4840392;0.4822976;0.4806803;0.4795864;0.4784936;0.4776521;0.4769454;0.4760803;0.4748181;0.4732969;0.4718101;0.4702983;0.4688146;0.4673087;0.4657525;0.4643414;0.4627272;0.4610714;0.4595584;0.4579213;0.4562304;0.4544415;0.4524381;0.4504359;0.4482825;0.4457684;0.4431666;0.4402026;0.4368616;0.4330494;0.4288043;0.4243322;0.4194906;0.4144424;0.4092164;0.4038615;0.3985313;0.3933821;0.3883124;0.3833735;0.3786488;0.3740391;0.3696162;0.365437;0.3614604;0.357541;0.3537565;0.3500427;0.3464202;0.3428931;0.3393383;0.3358772;0.3323825;0.3288836;0.3256122;0.3222702;0.3188458;0.3155204;0.3122603;0.3091006;0.3060006;0.3029294;0.299913;0.2970613;0.2941585;0.2912723;0.2884419;0.2854775;0.2825199;0.279669;0.276923;0.2743385;0.2718073;0.2691681;0.2662791;0.2631816;0.260095;0.257017;0.2535344;0.2502797;0.2478336;0.2459804;0.2441955;0.2421177;0.2397574;0.2373614;0.2349623;0.2325842;0.2302679;0.2279618;0.2256917;0.2234739;0.2212677;0.2190559;0.2169299;0.2148355;0.2127866;0.2107834;0.2087898;0.2068405;0.2049428;0.2030753;0.2012538;0.199459;0.1976869;0.1959748;0.1942988;0.1926423;0.1910316;0.1894557;0.1878945;0.1863711;0.184883;0.1834248;0.1820033;0.1805902;0.1792064;0.1778615;0.1765369;0.1752549;0.1740194;0.1728182;0.1716718;0.1705565;0.1694796;0.1684585;0.167476;0.1665371;0.1656741;0.164873;0.1640516;0.1632836;0.1625756;0.1619519;0.1613998;0.1609062;0.1604946;0.1601493;0.1598806;0.1596732;0.1595161;0.1594767;0.1594313;0.1594169;0.1594082;0.1594618;0.1595533;0.1596522;0.1597232;0.1597824;0.1597621;0.1596813;0.1595841;0.1594284;0.1592202;0.1589393;0.1586216;0.1582418;0.1577812;0.1572509;0.156698;0.1561324;0.1555277;0.1548863;0.1542648;0.1537466;0.1533982;0.153239;0.1532513;0.1534421;0.1537993;0.1543513;0.1550737;0.1559338;0.1569397;0.1580866;0.1593566;0.1607329;0.1622065;0.1637155;0.1652567;0.166778;0.1682168;0.1696007;0.1708807;0.1720237;0.173074;0.1739461;0.1746818;0.1752682;0.1756832;0.1759629;0.1761144;0.1761457;0.1760783;0.1759207;0.1756795;0.1753843;0.175049;0.1746488;0.1741734;0.1736766;0.1731516;0.1725703;0.1719666;0.171351;0.1706869;0.1699484;0.1691565;0.1683741;0.1676367;0.1669154;0.166197;0.1654906;0.1647559;0.1639869;0.1632582;0.1625315;0.1618147;0.1611241;0.1604374;0.1597306;0.1590015;0.1582768;0.1575636;0.1568523;0.1561214;0.1554466;0.1547776;0.1541386;0.1535426;0.1529316;0.152346;0.1518214;0.1513217;0.1508026;0.1502969;0.1498411;0.149424;0.1489913;0.1485963;0.1482972;0.1481092;0.1358001;0.1359019;0.1360423;0.1362459;0.1364793;0.1367628;0.1371176;0.1375625;0.1381313;0.1388617;0.1397765;0.140935;0.1423747;0.144185;0.1463537;0.1488508;0.1516981;0.1548257;0.1582117;0.1618357;0.1656258;0.1696334;0.1738871;0.1783082;0.182982;0.1878567;0.1928853;0.1980788;0.203272;0.2084102;0.2134306;0.2181376;0.2225249;0.2265762;0.2303461;0.2339829;0.2375437;0.2411329;0.2448484;0.2486364;0.2524889;0.2563521;0.2599938;0.2634079;0.2664961;0.2692522;0.271688;0.2738159;0.2757125;0.2774186;0.2789105;0.2801644;0.2811386;0.2817181;0.2818173;0.2813281;0.2801841;0.2783679;0.2759729;0.2730274;0.2696866;0.2661758;0.2625544;0.2590466;0.2557144;0.252545;0.2496426;0.2469769;0.2444877;0.2421967;0.2400622;0.2380759;0.2362214;0.2344854;0.2328705;0.2313674;0.2299691;0.2286933;0.227517;0.2264273;0.2254314;0.2244948;0.2236373;0.2228124;0.2220019;0.2211897;0.2203678;0.2195678;0.2187732;0.2179733;0.21718;0.2163968;0.2156417;0.2149474;0.214326;0.2137911;0.2133695;0.2130606;0.212888;0.212834;0.2129296;0.2131414;0.2135251;0.2140491;0.2147278;0.2155874;0.2166147;0.2178504;0.2192926;0.2209318;0.2228354;0.2249498;0.2273311;0.2299981;0.2328564;0.2359961;0.2393657;0.2429063;0.2467364;0.2506647;0.2546942;0.258883;0.263131;0.2675575;0.2720845;0.27665;0.281362;0.286004;0.2906123;0.2952138;0.2995992;0.3038657;0.3079731;0.3119283;0.3158284;0.3195821;0.3233178;0.3271146;0.3310459;0.3353435;0.3400137;0.3451868;0.3510484;0.3573376;0.3642359;0.3716176;0.3794237;0.3878784;0.3968727;0.4065064;0.4171873;0.4283192;0.4403537;0.452897;0.465795;0.4791917;0.4924714;0.5058544;0.5193058;0.5323544;0.5451375;0.5571289;0.5684769;0.5791107;0.5889052;0.5979171;0.6062456;0.6137516;0.6206711;0.6267188;0.6321146;0.6368504;0.6408885;0.6444619;0.6474915;0.6500717;0.6522349;0.6541033;0.6556309;0.6569349;0.6579723;0.6587924;0.6593686;0.6596825;0.6597568;0.659596;0.6591626;0.6584913;0.6576121;0.6564524;0.6551235;0.653578;0.6518792;0.6501192;0.6482084;0.6462744;0.6442974;0.6422551;0.6400933;0.6378312;0.6355827;0.6332758;0.631007;0.6287246;0.6264443;0.6242057;0.6220084;0.6198524;0.6176627;0.6155863;0.6136054;0.6116962;0.6098931;0.6081995;0.6065988;0.6050956;0.6037428;0.6024939;0.6014087;0.6002792;0.5993306;0.5984511;0.5976484;0.5969064;0.5961751;0.5954753;0.5948404;0.594197;0.5935739;0.5930061;0.5924636;0.5919942;0.5915089;0.5909557;0.590345;0.5896276;0.5888241;0.5879781;0.5870214;0.5859406;0.5847515;0.583467;0.5820899;0.5806232;0.5790561;0.5773711;0.5756184;0.5737591;0.5718221;0.569824;0.5677867;0.5657167;0.5636088;0.561509;0.5594908;0.5575031;0.5555602;0.5536766;0.5518244;0.5499784;0.5480722;0.5461023;0.5440897;0.5420695;0.5401227;0.5382405;0.5365026;0.5348228;0.533199;0.5316362;0.5301045;0.5286493;0.527282;0.5260302;0.5249254;0.5240307;0.5233161;0.5228541;0.522643;0.52271;0.5230564;0.5235023;0.5240955;0.5247075;0.5254157;0.5263363;0.5273932;0.5287887;0.5304708;0.532556;0.5350431;0.5379739;0.5414678;0.5453089;0.5495465;0.5539396;0.5584197;0.5629443;0.5675073;0.5722288;0.5771251;0.5819828;0.5866963;0.5911146;0.5950941;0.5987205;0.6020461;0.6050516;0.6078532;0.6105215;0.6130093;0.6151435;0.6169235;0.6180527;0.6181036;0.6172962;0.6153517;0.6127686;0.6100034;0.6073304;0.6052113;0.6037179;0.60298;0.6028593;0.6032095;0.6039823;0.6049647;0.6060669;0.607038;0.607812;0.6081209;0.6077911;0.6068397;0.6051691;0.6030698;0.6008379;0.5985873;0.5965064;0.5947142;0.593115;0.5917044;0.5904702;0.5893337;0.5883556;0.5874367;0.5865413;0.5856703;0.5847635;0.5837992;0.5827317;0.5816207;0.5804862;0.5793381;0.5782213;0.5771306;0.5760827;0.5750126;0.5739364;0.5728297;0.5716496;0.5703846;0.5690292;0.5676299;0.5661587;0.5646377;0.5630951;0.5614766;0.5598465;0.5582409;0.556659;0.5551324;0.553642;0.5522494;0.551018;0.5500018;0.5492389;0.5487385;0.5485418;0.5487192;0.5492797;0.5502199;0.5516465;0.5535456;0.5560451;0.5592001;0.5631085;0.5678572;0.5734809;0.5801016;0.5877131;0.5965576;0.606698;0.6181566;0.6311372;0.6456528;0.6615478;0.6787986;0.6972775;0.7166723;0.7367695;0.7570831;0.7774835;0.7976812;0.8170932;0.8356124;0.8528321;0.8688671;0.8836205;0.8971285;0.9093885;0.9202016;0.9298225;0.9380853;0.9450393;0.9506441;0.9550565;0.9582732;0.9601524;0.9610041;0.9608503;0.9597004;0.9576952;0.95504;0.9518321;0.9480446;0.9438659;0.9394945;0.934868;0.9300029;0.9251167;0.9200652;0.9150499;0.909986;0.9049022;0.899814;0.8947207;0.889714;0.884655;0.8795863;0.8744386;0.869364;0.8643471;0.8592542;0.8542579;0.8493426;0.8445648;0.8400018;0.8356688;0.8315045;0.8276337;0.8241067;0.8209013;0.8180506;0.8156126;0.8136589;0.8121194;0.8109699;0.8102682;0.8100659;0.810333;0.8110508;0.8121802;0.8137697;0.815881;0.818333;0.8211369;0.8242775;0.8277081;0.8314438;0.8353504;0.8394746;0.8436532;0.8479159;0.8521426;0.8562558;0.8602232;0.8639938;0.8674816;0.8707851;0.8736841;0.876364;0.8786215;0.880731;0.8826916;0.8844197;0.886204;0.8878029;0.8895352;0.8911794;0.8926987;0.8941932;0.8955573;0.896953;0.8981989;0.8994073;0.9005428;0.901574;0.9025396;0.9033828;0.9042575;0.9049593;0.9055591;0.9060645;0.9064072;0.9065792;0.9066979;0.9068338;0.9068258;0.9067132;0.9064873;0.9060838;0.9055395;0.9049273;0.9042049;0.9033258;0.9024178;0.9014255;0.9004809;0.8995559;0.8988217;0.8979121;0.8967959;0.8955029;0.8940325;0.8924975;0.8906869;0.8888642;0.8868725;0.8850051;0.8831959;0.881411;0.8795566;0.8776227;0.8756633;0.8736612;0.8716467;0.8695295;0.8673635;0.8650284;0.8626694;0.8602586;0.8578412;0.8552731;0.8526216;0.8500318;0.8474648;0.8449025;0.8424103;0.8400267;0.8377321;0.8355156;0.8333244;0.8311927;0.829156;0.8272572;0.8254685;0.8238511;0.8224038;0.8211724;0.8201488;0.8193268;0.818858;0.818657;0.8188756;0.8195723;0.8206356;0.822323;0.8244562;0.8271773;0.8303939;0.8343847;0.8389134;0.8441164;0.8498943;0.8561035;0.8628094;0.8698937;0.8772498;0.8847396;0.8923553;0.8999099;0.9076288;0.9150296;0.9222383;0.9290643;0.9353129;0.940852;0.9456497;0.9497265;0.9534299;0.9566416;0.9596583;0.962284;0.9648259;0.9674394;0.9702178;0.9733897;0.9771251;0.9816449;0.9864272;0.9916156;0.9967869;10.014.373;1.004.931;10.065.753;10.063.556;10.038.722;10.000.517;0.9957029;0.9920476;0.9895956;0.9880937;0.987565;0.9876582;0.9881768;0.9890301;0.9905272;0.9924492;0.9950162;0.9981567;10.019.559;10.059.679;10.095.781;10.119.613;10.125.527;10.112.046;1.008.157;10.045.753;10.014.522;0.9991464;0.9979605;0.9974256;0.9975253;0.9979334;0.9981942;0.9982324;0.9982732;0.998348;0.9985464;0.9988222;0.9993222;0.9998277;1.000.438;10.010.467;10.017.371;10.026.156;10.036.968;10.047.414;10.058.427;10.071.163;1.008.539;10.100.895;10.118.505;10.138.512;10.162.112;10.185.893;10.210.423;10.235.984;10.264.809;10.293.339;10.322.657;10.353.779;10.385.598;10.419.104;10.451.618;10.485.637;10.521.634;10.558.002;10.596.701;10.635.806;1.067.549;10.714.519;10.754.675;10.795.975;10.837.449;10.878.392;10.919.352;10.962.715;11.007.913;11.049.099;1.108.914;11.126.943;11.163.591;11.198.459;11.232.349;11.262.522;11.294.225;11.323.743;11.349.176;1.137.153;1.139.385;1.141.458;11.431.421;11.443.574;11.454.287;11.465.067;11.471.316;1.147.872;11.481.231;11.480.635
V8;79.253.325;12.224.445;157.032.375;0.9477825;908.745.346;7;0.568754;0.5850573;0.5924046;0.599305;0.6099003;0.6183158;0.6257604;0.632995;0.6367213;0.6380405;0.639654;0.6407908;0.6412792;0.6386676;0.635739;0.6318101;0.6273108;0.6254486;0.6197233;0.6132885;0.6087413;0.6019344;0.5977757;0.5936711;0.587499;0.5826136;0.5781603;0.5744489;0.570029;0.5656242;0.5618378;0.558881;0.5554041;0.5522653;0.5484575;0.5434808;0.5391693;0.5357249;0.5317382;0.5281779;0.5229371;0.5176722;0.5138746;0.509984;0.5070025;0.5019502;0.4982941;0.4948003;0.491421;0.4875357;0.4842276;0.4813585;0.4780813;0.4741395;0.4710777;0.4705838;0.4697116;0.4687476;0.4662108;0.4636867;0.4633529;0.4629503;0.46107;0.4606331;0.4617288;0.4616167;0.4628871;0.4640989;0.4650788;0.4646727;0.4657044;0.4656169;0.4660808;0.4670278;0.4668316;0.4658191;0.465147;0.4641572;0.4632946;0.4619544;0.4604528;0.4582798;0.4550197;0.4522761;0.4493903;0.4470129;0.445597;0.444776;0.4449047;0.4455695;0.4461976;0.4467029;0.4464967;0.4457494;0.4447077;0.4433565;0.4419012;0.4408625;0.4403656;0.4404448;0.4409448;0.4417299;0.4423569;0.4420799;0.4412832;0.4401412;0.4388409;0.4373555;0.4356215;0.4341267;0.4329273;0.4318799;0.4310198;0.4301354;0.4291901;0.4278083;0.426253;0.4246099;0.4229538;0.4213397;0.4196278;0.4179146;0.4161987;0.4143263;0.4124961;0.4106748;0.4087173;0.4067131;0.404668;0.4024985;0.4003935;0.3982256;0.3959519;0.3935895;0.390996;0.3882385;0.385233;0.3819026;0.3784987;0.3749064;0.3711613;0.3672178;0.3632066;0.3591416;0.3551874;0.3512959;0.3474847;0.3437621;0.3401339;0.3366503;0.3333457;0.3301743;0.327049;0.3240899;0.3211798;0.3183064;0.3155099;0.3126763;0.3099416;0.3072386;0.3044131;0.3016346;0.2988833;0.2960974;0.2933797;0.2907076;0.2881233;0.2855684;0.2830839;0.2806129;0.2782827;0.2759289;0.2735761;0.271242;0.26881;0.2663588;0.2640148;0.261744;0.2596409;0.2576166;0.2554973;0.2531002;0.2504892;0.2478608;0.2452155;0.242233;0.2395319;0.2376347;0.2361872;0.2348019;0.2331299;0.2311871;0.2292037;0.2272186;0.2252537;0.2233471;0.2214386;0.2195706;0.2177512;0.2159322;0.2141029;0.2123541;0.2106263;0.2089392;0.2072933;0.2056558;0.2040486;0.2024912;0.2009666;0.1994697;0.1979865;0.1965317;0.1951183;0.1937342;0.1923709;0.1910391;0.1897292;0.1884377;0.1871807;0.1859434;0.1847356;0.1835515;0.1823714;0.1812233;0.1800971;0.1789895;0.1779157;0.1768855;0.1758873;0.1749222;0.1739853;0.173083;0.1722309;0.1714041;0.1706136;0.1698805;0.1691888;0.1685316;0.1678897;0.1672927;0.166758;0.1662953;0.1658896;0.1655347;0.1652463;0.1650104;0.1648512;0.1647113;0.1646778;0.1646331;0.1646183;0.1645977;0.1646406;0.1647372;0.1648276;0.164896;0.1649602;0.164943;0.1648445;0.1647726;0.1646295;0.1644223;0.1641499;0.1638271;0.1634322;0.1629439;0.1623752;0.1617528;0.1611228;0.160444;0.1597023;0.1589689;0.1583262;0.1578418;0.157536;0.1573868;0.1573953;0.1575521;0.1578826;0.1583627;0.1589722;0.1597177;0.1605888;0.1615849;0.1626761;0.1638679;0.1650962;0.1663524;0.1675909;0.1687544;0.169875;0.170913;0.1718352;0.1726988;0.173415;0.1740259;0.1745201;0.1748702;0.1751099;0.1752484;0.1752867;0.1752393;0.1751209;0.1749354;0.174713;0.1744633;0.1741517;0.1737825;0.1733958;0.1729757;0.1725096;0.1720241;0.1715237;0.1709756;0.1703518;0.1696716;0.1690013;0.168373;0.1677552;0.1671436;0.1665314;0.1658825;0.1651952;0.1645466;0.1638875;0.1632367;0.1625997;0.161959;0.1613026;0.1606086;0.1599195;0.159245;0.1585676;0.1578702;0.1572313;0.1565946;0.1559872;0.1554254;0.1548311;0.1542862;0.1537901;0.1533127;0.1528171;0.1523309;0.1518924;0.1514953;0.1510811;0.1507066;0.1504195;0.1502344;0.1382592;0.1383722;0.138519;0.1387198;0.138949;0.1392327;0.1395802;0.1400003;0.140535;0.1412171;0.1420573;0.14313;0.1444713;0.1461498;0.1481459;0.1504547;0.1530885;0.1559711;0.1590804;0.1624099;0.1658872;0.1695691;0.1734601;0.1774977;0.1817648;0.1862291;0.1908512;0.1956464;0.2004615;0.205241;0.2099281;0.2143198;0.2183914;0.2221326;0.2256017;0.2289443;0.2322394;0.2355788;0.2390662;0.2426603;0.2463506;0.250082;0.2536111;0.2569209;0.2599196;0.2625887;0.2649484;0.2670126;0.2688546;0.2705289;0.2720161;0.2732821;0.2742771;0.274867;0.274959;0.2744541;0.2732606;0.2713534;0.2688361;0.2657403;0.2622176;0.2585254;0.254728;0.2510611;0.247593;0.2443178;0.2413539;0.2386347;0.2361162;0.2338162;0.231701;0.2297365;0.2279073;0.2261859;0.2245983;0.2231249;0.2217516;0.2205083;0.2193527;0.2182894;0.2173241;0.216432;0.2156157;0.2148417;0.2140792;0.2133272;0.2125496;0.2117977;0.2110547;0.2103015;0.2095347;0.2087951;0.208067;0.2073934;0.2067817;0.2062503;0.2058253;0.2054937;0.2052851;0.2051852;0.2052051;0.2053411;0.2056147;0.2060242;0.2065693;0.2072673;0.2081229;0.2091519;0.2103784;0.2117876;0.2134156;0.2152475;0.2172965;0.2196055;0.222119;0.2248771;0.2278623;0.2310109;0.2344049;0.2379136;0.241512;0.2452856;0.2491232;0.2531422;0.257268;0.2614635;0.2658145;0.27011;0.2743828;0.2786386;0.2827141;0.286671;0.2904997;0.2941888;0.2978498;0.3014103;0.3049529;0.308564;0.3122365;0.3162142;0.3204684;0.3252048;0.3305096;0.3361471;0.3422494;0.3486652;0.3553425;0.3624986;0.3700675;0.3782036;0.3872868;0.39684;0.4072782;0.4181733;0.429404;0.4411415;0.4528236;0.4646321;0.4765751;0.4881778;0.4995298;0.5101991;0.5202596;0.5296244;0.5382434;0.5461651;0.5535419;0.5601484;0.5662376;0.5716002;0.5763658;0.5805828;0.5841675;0.5873364;0.5900076;0.5922872;0.5942214;0.5958975;0.5972788;0.5984658;0.5994344;0.6001934;0.600741;0.6010504;0.6011694;0.6011032;0.6007617;0.6002473;0.5995333;0.5985793;0.5974969;0.5962229;0.5948275;0.5933564;0.5917718;0.590169;0.5885109;0.5867945;0.5849868;0.583086;0.5811673;0.5791914;0.5772662;0.57536;0.5734305;0.5715594;0.5696906;0.5678318;0.5659542;0.5641351;0.5624178;0.5607681;0.5591815;0.5576804;0.5562776;0.5549253;0.5537282;0.5526071;0.5516242;0.5505725;0.5496562;0.5488243;0.5480514;0.5473326;0.5466185;0.5459634;0.545361;0.5447622;0.5441825;0.5436592;0.5431715;0.5427703;0.5423379;0.5418609;0.5414048;0.5408353;0.5401641;0.539427;0.5385774;0.5376226;0.5365843;0.535436;0.5342063;0.5328839;0.5314676;0.5299476;0.5283771;0.5267158;0.5249926;0.5232095;0.5213835;0.5195628;0.5177016;0.5158632;0.5141237;0.5124202;0.5108109;0.5092416;0.5076973;0.5061572;0.5045152;0.5028238;0.501083;0.4993846;0.4977831;0.4962775;0.4949014;0.4935803;0.4922614;0.4910087;0.4897884;0.4886169;0.4875477;0.486556;0.4857018;0.4850437;0.4845696;0.4843432;0.4843716;0.4846818;0.4852579;0.4859365;0.4867475;0.4875712;0.4884882;0.4896106;0.4908706;0.4924587;0.4943183;0.4965492;0.4991848;0.5022645;0.5058929;0.5099363;0.5143631;0.5189936;0.5237621;0.5286083;0.5335187;0.5385894;0.5438582;0.5490246;0.5539638;0.5585617;0.562688;0.5664352;0.569826;0.5728883;0.5757238;0.5783871;0.5808859;0.5830116;0.5847211;0.5857279;0.5855588;0.5843947;0.5820063;0.5789105;0.5756191;0.5724524;0.5699295;0.5681427;0.5671988;0.5669531;0.5672565;0.5680132;0.5689952;0.5701119;0.5710989;0.5718608;0.5720637;0.5715921;0.5703992;0.5684319;0.5660096;0.5634078;0.5608423;0.5585017;0.5564687;0.5546602;0.5530734;0.5517194;0.5505314;0.5495117;0.5485946;0.5477285;0.5469137;0.5460919;0.5452256;0.5442848;0.5432891;0.5422673;0.5412348;0.540208;0.5392292;0.5382941;0.5373353;0.536355;0.5353528;0.5342481;0.5330643;0.5317957;0.5304832;0.5291113;0.5277122;0.5262827;0.5247986;0.5232903;0.5218154;0.5203438;0.5188963;0.5174893;0.5161639;0.5149507;0.5139197;0.5130893;0.5125349;0.5122358;0.5122566;0.5126042;0.5132795;0.5143477;0.5158334;0.5178559;0.5204599;0.5236886;0.5276518;0.5323815;0.537985;0.5444355;0.5519889;0.560706;0.5705767;0.581802;0.5944159;0.6083061;0.6234544;0.6396894;0.6567762;0.6746002;0.6927358;0.7109583;0.7289658;0.7462278;0.7628335;0.7783621;0.7928959;0.8062636;0.8185741;0.8297848;0.8397087;0.8484938;0.8560748;0.8624736;0.8676111;0.871615;0.8745522;0.8762676;0.8769807;0.8767756;0.8756926;0.8738149;0.8713289;0.8683207;0.8648107;0.8609903;0.8569207;0.8526729;0.8482885;0.843827;0.8392457;0.8347697;0.8302113;0.8257073;0.8212024;0.8166765;0.812265;0.8077976;0.8033613;0.798816;0.7943109;0.7898835;0.785422;0.7809855;0.7766638;0.7724732;0.7684326;0.7646277;0.7610012;0.7575851;0.7545067;0.7517347;0.7492971;0.747233;0.745586;0.7442868;0.7433596;0.742873;0.7427965;0.7431704;0.7439619;0.7451754;0.7467904;0.7488837;0.7513227;0.7541065;0.7571676;0.7605308;0.7641309;0.7679359;0.7719342;0.7759869;0.7800822;0.7841535;0.788063;0.7917951;0.7953548;0.7985808;0.801621;0.8041948;0.8066517;0.8086131;0.810379;0.8120219;0.8134546;0.8149462;0.8162694;0.817713;0.8189877;0.820341;0.8216419;0.822837;0.8240421;0.8251117;0.8261911;0.8272252;0.8282348;0.8291304;0.8300313;0.8308802;0.831597;0.8322555;0.8328433;0.8332717;0.8335633;0.833842;0.8340539;0.8342453;0.8343145;0.8342676;0.8340638;0.8337416;0.8333583;0.8328632;0.8322203;0.831551;0.8308274;0.8302112;0.8295732;0.8291898;0.8286292;0.8278498;0.8269195;0.8257518;0.8245209;0.8229918;0.8214573;0.8197621;0.8181764;0.8166291;0.815196;0.8136672;0.81209;0.8105;0.8088599;0.8071783;0.8054111;0.8035589;0.8015994;0.7995775;0.7973905;0.7952787;0.7930682;0.7907443;0.7884623;0.7861235;0.7838908;0.7817242;0.7796025;0.777549;0.7756602;0.7737684;0.7718626;0.7701538;0.76849;0.7670645;0.7657096;0.7645125;0.7634714;0.7627036;0.7622021;0.7619454;0.7619987;0.7624903;0.7633782;0.7646753;0.7665342;0.7688229;0.7716946;0.7750415;0.7789819;0.7834468;0.788478;0.7941111;0.8000705;0.806522;0.8132024;0.8202019;0.8272357;0.8344698;0.8417323;0.8487984;0.85577;0.8625779;0.8689514;0.8748297;0.8801547;0.8847112;0.8886515;0.8922998;0.895571;0.8986396;0.9016252;0.9045539;0.9074487;0.9106389;0.9141877;0.9183972;0.9231935;0.9284103;0.9337977;0.9392241;0.9440014;0.947476;0.9489354;0.9482855;0.9451649;0.9406871;0.9356744;0.9311847;0.9280102;0.9260204;0.9252092;0.9250292;0.9255011;0.926344;0.9279111;0.9299428;0.9328483;0.9362618;0.9403477;0.9444988;0.9482531;0.9508393;0.9514335;0.9497386;0.9463526;0.9423419;0.9387575;0.9361091;0.9346515;0.9339396;0.9338471;0.9340526;0.934216;0.9342657;0.9341036;0.9341204;0.9342379;0.9344406;0.9349553;0.9354327;0.9358294;0.9362829;0.9367386;0.9372935;0.9379731;0.9387086;0.9395214;0.9404037;0.9414797;0.9426987;0.944113;0.9457841;0.9476037;0.9495356;0.951646;0.9538403;0.9563134;0.9588466;0.9612513;0.9638483;0.9665705;0.9694126;0.9723057;0.975222;0.9782905;0.9815199;0.9848596;0.9883106;0.9918306;0.9954189;0.9990385;1.002.761;10.064.385;1.010.096;10.138.687;10.178.089;10.217.481;10.255.564;10.292.071;10.327.433;10.359.415;10.391.492;10.421.666;10.449.297;10.478.617;1.050.211;1.052.479;10.545.217;10.565.044;1.058.244;10.596.117;10.607.213;10.617.046;10.625.859;10.631.225;10.635.846;10.637.013;10.634.322
V9;77.013.626;12.489.032;127.757.387;0.7966911;913.021.774;4;0.5439417;0.5542123;0.5658959;0.5738871;0.5828787;0.5925413;0.5998598;0.602463;0.6062186;0.6094394;0.6111195;0.6105242;0.6085182;0.6064661;0.6041968;0.6035529;0.5989525;0.5935476;0.5905625;0.5853833;0.580918;0.5767828;0.5716706;0.5662696;0.5621768;0.5594844;0.5550766;0.5512504;0.5482;0.546225;0.5433085;0.5396792;0.5357176;0.5323253;0.5284676;0.5246469;0.5214092;0.518324;0.5145071;0.5118473;0.5091851;0.5060138;0.5032158;0.4990709;0.4959517;0.4907026;0.4863956;0.484641;0.483091;0.4789568;0.4752294;0.4724056;0.4705785;0.4665955;0.462909;0.4616025;0.4593588;0.457905;0.4564344;0.454595;0.4538163;0.4529805;0.4527725;0.4537322;0.4546891;0.4553379;0.455943;0.4568734;0.4578599;0.4577085;0.4588721;0.4594201;0.4600236;0.4603596;0.4599386;0.4597148;0.4593369;0.4586116;0.4575412;0.4556861;0.4546343;0.452209;0.4496278;0.4467373;0.4439397;0.4417023;0.4402466;0.4392715;0.439579;0.440247;0.4405206;0.4409431;0.4407945;0.4399848;0.4388131;0.4373756;0.4358838;0.43458;0.4341499;0.4340754;0.4343192;0.4349355;0.4352957;0.4350591;0.434249;0.4330029;0.4316455;0.4300165;0.4282553;0.4266201;0.4253521;0.4241998;0.4231444;0.4221046;0.4209009;0.4192989;0.4174544;0.4155182;0.4135583;0.4115903;0.409514;0.4073952;0.4053165;0.4030142;0.4007128;0.3984403;0.3960205;0.3935623;0.3910494;0.3884006;0.3858941;0.3833275;0.380644;0.378071;0.3753398;0.3725655;0.3696907;0.3666851;0.3637098;0.3606727;0.3575892;0.3543915;0.3511082;0.3477818;0.3445235;0.3412653;0.3379851;0.3347449;0.331523;0.3283541;0.32529;0.3223005;0.319356;0.3164994;0.313672;0.3108872;0.3081269;0.3053655;0.3027248;0.2999806;0.2971334;0.2943514;0.2915974;0.288805;0.2860611;0.2833633;0.2807513;0.2781973;0.2756885;0.2731904;0.2708535;0.2684498;0.2660794;0.2637298;0.2612752;0.2587991;0.2564046;0.2540807;0.2519081;0.2498024;0.2475639;0.2450808;0.2424267;0.2397952;0.2371349;0.2341632;0.231479;0.2295072;0.2280323;0.2266255;0.2249316;0.2229766;0.2209623;0.2189433;0.216937;0.2149783;0.213031;0.2111367;0.209261;0.2073858;0.2055107;0.2037179;0.2019566;0.2002246;0.1985337;0.1968432;0.1951922;0.1935944;0.1920296;0.1905;0.1889795;0.1874759;0.1860145;0.1845883;0.1831881;0.1818201;0.1804722;0.1791422;0.177845;0.1765788;0.1753456;0.1741297;0.172923;0.171748;0.1706006;0.1694684;0.168367;0.1673093;0.1662881;0.1653071;0.1643547;0.1634325;0.1625619;0.1617296;0.1609568;0.1602348;0.1595298;0.1588266;0.1581701;0.1575765;0.1570542;0.1565855;0.156175;0.1558333;0.1555569;0.1553343;0.1551746;0.1550469;0.1550337;0.1550045;0.1550128;0.1550125;0.1550643;0.1551601;0.1552487;0.1553219;0.1553778;0.1553633;0.1553058;0.1552033;0.1550604;0.1548568;0.1545961;0.15429;0.1539279;0.1534826;0.1529803;0.1524498;0.1518992;0.1513107;0.1506737;0.1500431;0.1495026;0.149108;0.1488757;0.1487887;0.1488539;0.149058;0.1494275;0.1499459;0.1505871;0.1513638;0.1522788;0.1533205;0.1544787;0.1557426;0.1570535;0.1584079;0.1597533;0.1610403;0.1622872;0.1634565;0.1644962;0.1654718;0.1662799;0.1669662;0.1675326;0.1679464;0.1682438;0.1684244;0.1685067;0.1684899;0.1683954;0.1682274;0.1680252;0.1677908;0.167508;0.167151;0.1667523;0.166332;0.1658759;0.1654048;0.1649207;0.1643874;0.1637777;0.1631214;0.162473;0.1618581;0.1612657;0.1606727;0.1600866;0.159485;0.1588555;0.1582057;0.1575967;0.1569984;0.1564095;0.1558207;0.1552184;0.1545806;0.1539513;0.1533356;0.1527154;0.1520669;0.1514696;0.150874;0.1503081;0.1497831;0.1492448;0.1487196;0.1482524;0.147801;0.1473353;0.1468698;0.1464399;0.1460574;0.1456626;0.1452914;0.1450039;0.1448129;0.130669;0.1307476;0.1308577;0.1310182;0.1312099;0.1314477;0.1317415;0.1321235;0.1325994;0.133194;0.1339557;0.1349325;0.1361577;0.1377044;0.1395428;0.1416706;0.1441073;0.1467847;0.149671;0.1527656;0.1560051;0.1594213;0.1630358;0.1667969;0.1707787;0.1749411;0.1792547;0.1837387;0.1882435;0.1927275;0.1971267;0.2012572;0.2051076;0.2086581;0.2119578;0.2151496;0.2182724;0.2214195;0.2246826;0.2280043;0.2313848;0.2347735;0.2379694;0.2409543;0.243656;0.2460717;0.2482126;0.2500927;0.2517759;0.2533092;0.2546571;0.255802;0.2567059;0.2572551;0.257378;0.2569922;0.2560239;0.2544581;0.252368;0.2497912;0.2468543;0.243756;0.240577;0.2374811;0.2345372;0.2317393;0.2291752;0.2268007;0.2245837;0.2225507;0.2206436;0.2188546;0.2171862;0.215617;0.2141748;0.2128218;0.2115749;0.2104394;0.209379;0.2084095;0.2075295;0.2067151;0.2059665;0.2052391;0.2045311;0.2038181;0.2030952;0.2023756;0.2016501;0.2009236;0.2001993;0.1994779;0.1987576;0.1980985;0.1974927;0.1969616;0.1965248;0.1961751;0.1959445;0.1958125;0.1957914;0.1958893;0.1961082;0.1964493;0.1969279;0.1975422;0.1983074;0.1992279;0.2003347;0.2016178;0.2030943;0.204788;0.2066794;0.2088079;0.211132;0.2137004;0.2164861;0.2194368;0.2226413;0.2259552;0.2293641;0.2329438;0.2365864;0.2403797;0.2443022;0.2482926;0.2524062;0.2564644;0.2604991;0.2645048;0.2683338;0.272028;0.2755846;0.2789774;0.2823061;0.2854748;0.2886322;0.2917895;0.2950071;0.2984766;0.3022141;0.3063342;0.3109389;0.3158339;0.3211911;0.3268927;0.3328836;0.3393357;0.3462118;0.3536306;0.3619032;0.3706356;0.3801969;0.3901777;0.4005347;0.4113722;0.4221514;0.4330699;0.444157;0.4549409;0.4655382;0.4755519;0.485042;0.4939776;0.5022122;0.509844;0.5169404;0.5232925;0.5291392;0.5342783;0.5388358;0.5428598;0.5462715;0.549265;0.5517947;0.5539656;0.5557877;0.5573352;0.5586023;0.5596727;0.5605441;0.5612231;0.5617003;0.5619658;0.5620656;0.5619598;0.5616574;0.5611647;0.5605072;0.559688;0.5587142;0.5575854;0.5563419;0.5550482;0.5536614;0.5522496;0.5507843;0.5492568;0.5476129;0.5459163;0.5442233;0.542469;0.5407617;0.539032;0.5372772;0.5355838;0.5338818;0.5322245;0.5305165;0.528888;0.5273435;0.5258278;0.5244132;0.5230886;0.5218301;0.520665;0.5196129;0.5186536;0.51784;0.516959;0.5162141;0.5155627;0.5149574;0.5143919;0.5138361;0.5133286;0.5128818;0.5124317;0.512005;0.511653;0.5113049;0.511007;0.5106847;0.5102988;0.5098799;0.5093813;0.5088149;0.5081778;0.5074328;0.5065932;0.5056678;0.5046353;0.5035146;0.5023088;0.5010059;0.4996039;0.4981519;0.4966001;0.4949896;0.4933378;0.4916368;0.4899188;0.4881674;0.4864244;0.4847583;0.4830938;0.4814956;0.4799172;0.4783848;0.4768468;0.4752683;0.4736519;0.4720096;0.4703435;0.468744;0.467213;0.4657765;0.4643975;0.4630539;0.4617648;0.4605068;0.4593144;0.4582042;0.4571694;0.4562632;0.4555411;0.4549947;0.4546621;0.4545389;0.4546628;0.4550338;0.4555077;0.4561242;0.4567881;0.4575699;0.4585655;0.4597221;0.4611692;0.4628463;0.4648101;0.4671066;0.4697394;0.4728285;0.4762246;0.4799551;0.4838354;0.4878075;0.4918428;0.4959125;0.5001093;0.5044777;0.5087916;0.5129651;0.5168687;0.5203642;0.5235508;0.5264447;0.5290607;0.5314829;0.5337262;0.5358225;0.5375988;0.5390316;0.5398892;0.539788;0.538932;0.5370762;0.53468;0.5321437;0.5296952;0.5277634;0.5263715;0.5256538;0.5254867;0.5257541;0.5263658;0.5271264;0.5279742;0.5287156;0.5292904;0.5294291;0.5290048;0.5280321;0.5264456;0.5244985;0.522446;0.5203957;0.5185209;0.5169187;0.5154797;0.5142222;0.5131512;0.5121809;0.5113464;0.5105891;0.509859;0.5091476;0.5084207;0.5076598;0.5068173;0.5059106;0.5049928;0.5040763;0.5031698;0.5022824;0.501437;0.5005606;0.4996867;0.4987792;0.4977949;0.4967342;0.4956162;0.4944429;0.4932166;0.491931;0.4906237;0.4892589;0.4878474;0.4864514;0.4850809;0.4837044;0.4823634;0.4810996;0.4799469;0.4789639;0.4781737;0.4775855;0.4772197;0.477152;0.4773602;0.4778512;0.4786946;0.4799215;0.4815932;0.4837505;0.4864613;0.4897864;0.4937524;0.4984897;0.5039806;0.5104394;0.5179283;0.5264404;0.536175;0.5471347;0.5592294;0.5724499;0.5867306;0.6018366;0.6176698;0.6338258;0.6500794;0.6662486;0.6819174;0.6969398;0.7110157;0.7241964;0.7363116;0.7474397;0.7576343;0.7666895;0.7747534;0.7816969;0.7875457;0.7922516;0.7959248;0.7985792;0.8001491;0.8008101;0.8005913;0.7995722;0.797825;0.7955074;0.7927772;0.7895421;0.7860579;0.7823516;0.778468;0.7744976;0.7704626;0.7663546;0.7623148;0.7582196;0.7541652;0.7501327;0.7461184;0.7422018;0.73822;0.7342757;0.7302433;0.7262636;0.7223462;0.7184373;0.7145543;0.710775;0.7070681;0.7035484;0.7002645;0.6971135;0.6942006;0.6916016;0.6893032;0.687288;0.6856319;0.6844002;0.6835171;0.6830283;0.6829183;0.6832439;0.6839552;0.6850872;0.6865607;0.6884544;0.6907581;0.6933596;0.6962246;0.6994089;0.7028677;0.7065518;0.7103766;0.7143589;0.7184;0.7224697;0.7265025;0.7303702;0.7340986;0.737649;0.7409187;0.7439513;0.7466068;0.7490487;0.7511251;0.7530072;0.7547656;0.7563241;0.757894;0.7593086;0.7608039;0.7622013;0.7636188;0.764976;0.7662119;0.7674457;0.7685624;0.7697265;0.7707729;0.7717931;0.7727296;0.7736391;0.774471;0.7752067;0.7758373;0.7764;0.7767996;0.7771004;0.777307;0.7775263;0.7776077;0.7776083;0.7774928;0.7772173;0.7768655;0.7763739;0.7758149;0.7751219;0.774437;0.7736985;0.7730101;0.7723296;0.7717986;0.7711627;0.7703344;0.7694173;0.7682583;0.7671033;0.7656342;0.7641832;0.7626261;0.7611653;0.7597253;0.7583222;0.7568709;0.7553512;0.753838;0.7522781;0.7507249;0.7490758;0.7473564;0.7455133;0.7435849;0.7416262;0.7396659;0.7375612;0.7354107;0.7333062;0.7311438;0.7290841;0.7270579;0.7250471;0.7231863;0.7213903;0.7195601;0.717828;0.7162203;0.7146647;0.7132508;0.7119358;0.7108416;0.7098977;0.7091643;0.7086267;0.7082934;0.7083122;0.7086352;0.7093764;0.7104359;0.71206;0.7140356;0.716603;0.7195307;0.7230896;0.7271438;0.7316284;0.7366416;0.7419981;0.7477551;0.7537162;0.7599737;0.7663814;0.7727691;0.7791525;0.7855123;0.7917551;0.7977479;0.8034046;0.8086884;0.8133291;0.817297;0.8207449;0.8238799;0.8266983;0.8292617;0.8316098;0.833917;0.8361626;0.8384778;0.8413519;0.8446637;0.848514;0.8527044;0.8570876;0.8613961;0.8653215;0.8681356;0.8694934;0.8691889;0.8669421;0.8635138;0.8598394;0.8565516;0.8543047;0.852966;0.8525077;0.85248;0.8529684;0.8536854;0.8549359;0.8566062;0.858806;0.8614894;0.8646085;0.8680474;0.8709387;0.8729389;0.8732473;0.8719622;0.8692766;0.866068;0.8632308;0.8611332;0.8599731;0.8594282;0.8593213;0.859364;0.8594489;0.8593888;0.8592244;0.8591183;0.8591296;0.8592017;0.8594722;0.859737;0.8600087;0.8604094;0.8608256;0.8613598;0.8620212;0.8627832;0.8635404;0.8644008;0.8653995;0.8665645;0.8679338;0.8695423;0.8713548;0.8733081;0.8753638;0.8775053;0.8798202;0.8821927;0.8846459;0.8872706;0.8899177;0.8926352;0.8955479;0.8984149;0.9014705;0.9045755;0.9078787;0.9113113;0.914755;0.9182016;0.9216338;0.9252199;0.9287606;0.9324442;0.9360518;0.9397637;0.9435738;0.9472911;0.9507671;0.9541418;0.957308;0.9602569;0.9632013;0.9660332;0.968886;0.971275;0.9735466;0.9755737;0.9774544;0.9792563;0.9808195;0.9819481;0.9829547;0.9838123;0.9844316;0.9849765;0.9851253;0.9850733
V10;77.979.264;12.715.914;133.929.119;0.793783;908.495.941;4;0.5604542;0.5746682;0.5828173;0.5915173;0.6023853;0.6101158;0.6191991;0.6264761;0.6296337;0.632322;0.6339993;0.6355664;0.636618;0.6349429;0.6329834;0.6297438;0.6249129;0.6229379;0.6184845;0.6115395;0.6075994;0.6028802;0.5979074;0.593668;0.5896831;0.5841174;0.5795516;0.5768155;0.5737413;0.569803;0.5661963;0.563052;0.5595636;0.5564498;0.5526167;0.5488327;0.5450573;0.5411919;0.5377201;0.5349;0.5302393;0.5263242;0.5229916;0.5199012;0.5171427;0.5114583;0.5071649;0.5039849;0.5005965;0.4975203;0.4956569;0.4940879;0.4912848;0.4878184;0.4842717;0.481691;0.4800458;0.4782801;0.4760664;0.4740566;0.4740158;0.4737347;0.4738465;0.4749428;0.4748058;0.4753294;0.4764844;0.4784087;0.4794013;0.4811912;0.4817016;0.4820304;0.483054;0.4834526;0.4843854;0.4837235;0.4832943;0.4831564;0.4824221;0.481318;0.4795848;0.4772106;0.4744153;0.4714057;0.4688095;0.4663836;0.4646947;0.4641346;0.4643374;0.4649697;0.4660686;0.4666754;0.4662991;0.4655064;0.464515;0.4630946;0.461641;0.4604502;0.459902;0.4598046;0.4602789;0.4609295;0.4615243;0.4614605;0.4605841;0.4593244;0.4578786;0.4560938;0.4542865;0.4526402;0.4511925;0.4499208;0.4488446;0.4477769;0.4464322;0.4447301;0.4426871;0.4405714;0.4384555;0.4362424;0.4339599;0.4316358;0.4292884;0.4267681;0.4242015;0.4216321;0.4189886;0.4162365;0.4134107;0.4104429;0.4075794;0.4047374;0.4018191;0.3989631;0.3960621;0.3930346;0.3899316;0.3867403;0.383407;0.3800929;0.3766955;0.373163;0.3695799;0.3659459;0.3623506;0.3587566;0.3551849;0.351586;0.3480173;0.344535;0.3411599;0.3378632;0.3346227;0.3314431;0.3283021;0.3252161;0.3221664;0.3190394;0.315991;0.3128652;0.3098647;0.3067628;0.3036559;0.3005117;0.2974612;0.2943996;0.2914447;0.2885505;0.2856864;0.2828685;0.2802005;0.2774255;0.2747587;0.272082;0.269315;0.2666167;0.2638384;0.2612006;0.2586952;0.2562266;0.2536438;0.2508384;0.2478465;0.2448786;0.2418935;0.2386278;0.2356738;0.2334905;0.2317389;0.230042;0.2280459;0.2257815;0.2234891;0.221203;0.2189298;0.2167099;0.2145011;0.2123446;0.2102286;0.2081136;0.2060452;0.2039982;0.201967;0.2000017;0.1980922;0.1961904;0.1943273;0.1925156;0.1907372;0.1890018;0.1872969;0.1856026;0.1839533;0.1823441;0.1807555;0.179216;0.1777045;0.1762085;0.1747485;0.1733126;0.1719211;0.1705654;0.1692081;0.1678793;0.1665861;0.165307;0.1640604;0.1628638;0.1617059;0.1605959;0.1595148;0.1584679;0.157478;0.1565316;0.1556551;0.1548132;0.1539924;0.1531909;0.1524464;0.1517659;0.151163;0.1506287;0.1501596;0.1497747;0.1494448;0.1491769;0.1489655;0.1488078;0.1487593;0.1487021;0.148691;0.1486908;0.148707;0.1487826;0.1488692;0.1489358;0.1489855;0.1489603;0.1488942;0.1487653;0.1486001;0.1483733;0.1480848;0.1477562;0.1473562;0.1468742;0.1463232;0.1457303;0.1451166;0.1444743;0.1437767;0.1430859;0.1425067;0.1420909;0.1418542;0.141783;0.1418878;0.1421496;0.1425869;0.1431979;0.1439483;0.1448472;0.1458992;0.1470722;0.1483618;0.1497782;0.1512311;0.1527234;0.1542018;0.1556001;0.1569572;0.158213;0.1593415;0.1603803;0.1612344;0.1619581;0.1625403;0.1629566;0.1632423;0.1634045;0.1634558;0.1633938;0.1632474;0.1630271;0.1627572;0.1624686;0.1621107;0.1616827;0.1612244;0.1607257;0.1601787;0.1596257;0.1590669;0.1584524;0.1577592;0.1570221;0.1562984;0.1556092;0.1549367;0.1542727;0.1536108;0.1529387;0.1522443;0.1515368;0.1508409;0.1501685;0.14951;0.1488549;0.1481986;0.1474907;0.1467983;0.1461129;0.1454431;0.1447343;0.1440717;0.1434326;0.1428419;0.1422328;0.1416361;0.141063;0.1405476;0.1400528;0.1395628;0.1390512;0.1385898;0.1381685;0.1377627;0.1373647;0.137038;0.1368522;0.125434;0.1255422;0.1256863;0.1258775;0.1261043;0.1263896;0.1267387;0.1271706;0.1277082;0.1283691;0.1291845;0.1302466;0.1315856;0.133274;0.1352897;0.1376131;0.1402854;0.1432467;0.1464621;0.1499284;0.1535766;0.1574489;0.1615664;0.1658648;0.1704135;0.1751623;0.1800707;0.1851454;0.1902269;0.1952589;0.2001793;0.204786;0.2090735;0.2130194;0.2166719;0.2201894;0.2236369;0.2271095;0.2307123;0.2343947;0.2381552;0.2419359;0.245507;0.248857;0.2519059;0.2546332;0.2570566;0.2591864;0.2610996;0.2628446;0.2643791;0.2657041;0.2667428;0.2673681;0.267505;0.2670467;0.2659245;0.2641253;0.2617244;0.2587596;0.255381;0.2518281;0.2481763;0.2446297;0.2412596;0.2380646;0.2351549;0.2324668;0.2299779;0.2276819;0.2255295;0.2235274;0.2216588;0.219893;0.2182697;0.2167481;0.2153314;0.2140363;0.2128433;0.2117489;0.2107499;0.2098164;0.2089559;0.2081371;0.2073341;0.2065299;0.2057312;0.2049344;0.2041502;0.2033544;0.2025771;0.2017997;0.2010299;0.2003268;0.1996782;0.1991279;0.1986795;0.1983366;0.1981286;0.1980216;0.1980479;0.1981887;0.1984891;0.1989266;0.1995097;0.2002491;0.2011521;0.2022468;0.2035449;0.205031;0.20676;0.2086942;0.2108801;0.213344;0.2160016;0.2189407;0.2221219;0.2254945;0.2291425;0.2328827;0.2367398;0.240758;0.244853;0.2491495;0.2535373;0.2579917;0.2626074;0.2671522;0.2716493;0.276146;0.280441;0.2846068;0.2886197;0.2924592;0.2962596;0.2999147;0.3035464;0.3072316;0.3109865;0.3150328;0.319461;0.3243663;0.3298745;0.3357531;0.342161;0.3489603;0.3561068;0.3638082;0.3720229;0.3808642;0.3907163;0.4010533;0.4123667;0.424131;0.4362638;0.4489487;0.46156;0.4742825;0.4871236;0.4995871;0.5118194;0.5233417;0.5342419;0.544441;0.5538454;0.5625381;0.5706078;0.5778155;0.584439;0.5902261;0.5953215;0.5997947;0.6035988;0.6069362;0.6097699;0.6121756;0.6141507;0.6158545;0.6172321;0.6183807;0.6192641;0.6199493;0.6204125;0.6206174;0.6206208;0.6204023;0.6199186;0.6192273;0.6183413;0.617232;0.6159607;0.6145099;0.6129379;0.611293;0.6095408;0.6077715;0.6059591;0.6040897;0.6021096;0.6000283;0.5979543;0.5958153;0.5937223;0.5916036;0.5894779;0.587385;0.5852988;0.5832992;0.5812313;0.5792482;0.5773787;0.5756021;0.5739026;0.5723128;0.5707973;0.5693672;0.5680956;0.5669222;0.5659216;0.5649329;0.5640076;0.5631903;0.5624339;0.5617313;0.5610576;0.5604353;0.5598595;0.5593107;0.5587621;0.5582699;0.5577832;0.5573945;0.5569833;0.5564941;0.5559612;0.5553242;0.5545962;0.5538571;0.552994;0.5519932;0.5508662;0.5496292;0.5482965;0.546874;0.5453479;0.5437129;0.5420128;0.5402212;0.538375;0.5364785;0.5345249;0.5325593;0.530558;0.5285681;0.5266469;0.5247422;0.5229144;0.5211242;0.5193673;0.5176169;0.5157869;0.5139306;0.512035;0.5101562;0.5083579;0.5066298;0.5050219;0.5034586;0.5019366;0.500466;0.4990141;0.4976402;0.4963586;0.4951687;0.4941271;0.4932721;0.4926246;0.4922213;0.4920659;0.4921893;0.4925755;0.4930737;0.4937354;0.4944484;0.4953067;0.4964147;0.4976885;0.4993183;0.50122;0.5034717;0.5061154;0.509189;0.5127955;0.5167889;0.5211782;0.5257393;0.5304188;0.5351805;0.5399936;0.5449669;0.550121;0.5552098;0.5601662;0.5648001;0.5689589;0.5727357;0.576154;0.5792485;0.5821192;0.5847775;0.5872481;0.5893521;0.5910643;0.5920614;0.5919254;0.5908857;0.588668;0.5857882;0.582773;0.5798868;0.5776065;0.5760107;0.575227;0.5750926;0.5754716;0.57626;0.5772519;0.5783626;0.5793317;0.5800635;0.5802757;0.5798216;0.5787047;0.5768365;0.5745422;0.572129;0.569746;0.5675525;0.5656743;0.5640064;0.5625428;0.5612779;0.5601577;0.5592039;0.5583231;0.5574939;0.5566783;0.5558219;0.5549289;0.5539641;0.5529172;0.5518544;0.550781;0.5497199;0.5486616;0.5476604;0.5466532;0.5456215;0.5445672;0.5434148;0.542177;0.5408692;0.5394869;0.5380613;0.5365966;0.5350923;0.5335342;0.5319371;0.5304099;0.5288618;0.5273035;0.5257872;0.5243574;0.5230682;0.5219817;0.5210955;0.5204576;0.5201244;0.5201441;0.5204985;0.5212075;0.5223532;0.523966;0.5261143;0.5288324;0.5322275;0.5364021;0.5413842;0.5472925;0.5541142;0.5620592;0.5712019;0.5815741;0.5933706;0.6066191;0.621222;0.6370981;0.6541198;0.6720125;0.6906346;0.7095775;0.7285426;0.7471913;0.7652198;0.7824166;0.7983844;0.8132629;0.8269241;0.8394364;0.8507885;0.8607923;0.8696702;0.8773019;0.8837253;0.8888361;0.8927914;0.8956499;0.8972834;0.8979251;0.8976341;0.8964722;0.8945015;0.8918729;0.8887818;0.8851908;0.8812551;0.8770975;0.8727635;0.8682968;0.8637953;0.8591162;0.854502;0.8498785;0.8452379;0.8406132;0.8359905;0.8315122;0.8269524;0.8223594;0.8177394;0.8131248;0.8085554;0.8039752;0.7994316;0.7949866;0.7907028;0.7865868;0.7826901;0.7790016;0.7755767;0.772477;0.7697037;0.7673047;0.7652934;0.7637181;0.7625489;0.761799;0.7614695;0.7616327;0.7622352;0.7632932;0.7647731;0.7666991;0.7690966;0.7718204;0.7748888;0.7782902;0.7819909;0.7859079;0.7899939;0.7942726;0.7985948;0.8029381;0.8072567;0.8114221;0.815387;0.8191495;0.8225552;0.8257757;0.828622;0.8312205;0.8334047;0.835384;0.8372887;0.8388353;0.8404982;0.8419929;0.843637;0.8451281;0.8465711;0.8479433;0.8492798;0.8505861;0.8518189;0.8530821;0.8542314;0.8553323;0.8563223;0.8572913;0.8581775;0.8589249;0.8596324;0.8602446;0.8606798;0.8609577;0.861201;0.8613966;0.8615165;0.8614849;0.8613389;0.861065;0.8605981;0.860027;0.8594387;0.8586494;0.8578395;0.8569705;0.8561791;0.8553869;0.8548568;0.8541179;0.8531969;0.8521101;0.8508583;0.8495421;0.8479217;0.8462428;0.8444273;0.8427119;0.8410197;0.839464;0.8378353;0.8361167;0.8344356;0.8327017;0.8310461;0.8291783;0.8272704;0.8252155;0.8231155;0.8209569;0.8187248;0.8163597;0.8139468;0.8115785;0.8091623;0.8069146;0.8045747;0.8023825;0.800296;0.7982776;0.7962892;0.7943091;0.7925053;0.7908226;0.7892059;0.7877489;0.7865613;0.7854605;0.784594;0.7840381;0.7837213;0.7837134;0.7841183;0.7849829;0.7861013;0.7878888;0.790137;0.7930377;0.7964026;0.8003609;0.8049596;0.8100323;0.8156797;0.8216772;0.8280993;0.8348601;0.8418447;0.8489199;0.8561393;0.8632393;0.8703659;0.8772718;0.8839929;0.8902718;0.8961304;0.9013215;0.905875;0.9097122;0.9132313;0.9164242;0.9193683;0.9221191;0.9247504;0.9273545;0.9301639;0.9334567;0.937253;0.9416436;0.9464073;0.951457;0.9563943;0.9608181;0.96398;0.9653758;0.9648557;0.9622401;0.9581165;0.9537255;0.9499185;0.9473311;0.9458343;0.9450793;0.9451166;0.945742;0.9464384;0.947969;0.949755;0.95239;0.9556468;0.9593193;0.9631423;0.9665319;0.9687676;0.969229;0.9677109;0.9646542;0.9609608;0.9577264;0.9553872;0.9540995;0.9535401;0.9535512;0.9537925;0.9539509;0.9539446;0.9537926;0.953753;0.9537438;0.9540155;0.954363;0.9547858;0.9551705;0.9556262;0.9561587;0.9567875;0.9575638;0.9584007;0.9593121;0.9603547;0.9615229;0.9628521;0.9643685;0.9662181;0.9681469;0.970219;0.9724046;0.9748814;0.9774485;0.9800113;0.9826047;0.9853972;0.9883105;0.9913698;0.9944586;0.9974817;10.007.875;10.042.161;10.077.834;10.114.551;10.150.323;10.185.757;10.222.354;10.260.181;10.298.529;1.033.669;10.375.267;10.416.397;10.456.065;10.494.297;10.531.017;10.566.289;10.599.003;10.630.001;10.660.882;10.688.927;10.718.323;10.743.937;10.766.617;10.787.076;1.080.828;10.826.906;10.840.701;10.852.473;10.863.413;10.872.651;10.877.914;10.883.697;10.885.518;10.885.997
V11;79.800.835;12.572.701;156.556.864;0.8691767;903.635.864;7;0.5695098;0.5855876;0.5919541;0.5993181;0.6091065;0.6174152;0.6245854;0.6315262;0.6344185;0.6353006;0.6367116;0.6368762;0.637454;0.6331989;0.632082;0.6269557;0.6235414;0.6194189;0.6133249;0.6083881;0.6023881;0.5968283;0.5919349;0.5875232;0.5805159;0.5771418;0.573008;0.5695806;0.5640009;0.5607191;0.5570566;0.5540765;0.5519954;0.5489131;0.5440247;0.5384488;0.5342438;0.5313033;0.5282013;0.5257798;0.5208897;0.5157503;0.5120625;0.5082623;0.5049086;0.5001113;0.4964625;0.4936321;0.4903423;0.4864104;0.4836231;0.4808865;0.4780525;0.4737019;0.4703145;0.4703029;0.4703165;0.4690847;0.4663489;0.464145;0.4639539;0.4634186;0.4611249;0.4608925;0.4624207;0.4625418;0.4639906;0.4649994;0.4661962;0.4661503;0.4673949;0.4672526;0.4674955;0.4687934;0.4686237;0.4680074;0.4673575;0.4662009;0.4654467;0.4644428;0.4628911;0.4607535;0.4578171;0.4550896;0.4523669;0.4500328;0.4485605;0.4481334;0.4480441;0.4489589;0.4500277;0.4505937;0.4503346;0.4497696;0.4487926;0.4474573;0.4462975;0.4454396;0.4449591;0.4453581;0.4459974;0.4465468;0.4472647;0.4472876;0.4467885;0.4457462;0.444539;0.443056;0.4414204;0.4400143;0.4388406;0.4378852;0.4371637;0.4364576;0.4356712;0.4344799;0.433066;0.4316346;0.4302828;0.4289728;0.4276;0.4261977;0.4248414;0.4233824;0.4219103;0.420511;0.4190271;0.4174799;0.4158378;0.413988;0.4121884;0.4102361;0.4080835;0.4058401;0.4031794;0.4002257;0.3968739;0.3932043;0.3893246;0.3851982;0.3808684;0.3764154;0.3718505;0.3672857;0.3628639;0.3585459;0.3543595;0.3503405;0.3464488;0.3427544;0.3392555;0.3359067;0.3326583;0.3295432;0.3265284;0.3235907;0.3207174;0.3178265;0.3150501;0.3123023;0.309515;0.306711;0.3039638;0.3011841;0.2985012;0.2958314;0.2932484;0.2907678;0.2882884;0.2858758;0.2835995;0.2812704;0.2789744;0.2766888;0.2743263;0.2719318;0.2696246;0.2673723;0.2651929;0.263083;0.2608736;0.2584642;0.255874;0.253327;0.2507646;0.2478508;0.2451753;0.2433062;0.2419028;0.2405326;0.2388774;0.2369762;0.2350091;0.233047;0.2311094;0.2292138;0.2273307;0.2254832;0.2236688;0.2218689;0.2200658;0.2183323;0.2166301;0.2149606;0.2133261;0.2116961;0.2101077;0.2085582;0.2070381;0.2055541;0.2040898;0.2026453;0.201235;0.1998619;0.1985189;0.1972061;0.1959101;0.1946284;0.1933808;0.19215;0.1909461;0.1897777;0.1886095;0.1874647;0.1863506;0.1852468;0.1841762;0.183151;0.1821597;0.1811979;0.1802668;0.1793679;0.1785071;0.1776735;0.1768894;0.1761495;0.1754404;0.1747458;0.1741161;0.1735579;0.1730242;0.1725583;0.1721345;0.1717862;0.1714792;0.1712239;0.1710306;0.1708669;0.170808;0.1707299;0.170678;0.1706096;0.1706107;0.17066;0.1707173;0.1707547;0.1707899;0.1707477;0.1706375;0.1705168;0.1703906;0.1701966;0.1699212;0.1695984;0.1692213;0.1687491;0.1681994;0.1676046;0.1669948;0.1663525;0.1656482;0.1649435;0.1643307;0.1638606;0.1635521;0.1633974;0.1633975;0.1635309;0.163829;0.1642706;0.1648292;0.165508;0.1663142;0.1672352;0.168247;0.1693494;0.1704868;0.1716538;0.1728095;0.173896;0.1749455;0.1759088;0.1767748;0.1775872;0.1782563;0.1788286;0.1792838;0.1796032;0.1798098;0.1799135;0.1799279;0.1798597;0.1797102;0.1795003;0.1792552;0.1789617;0.1786249;0.1782355;0.1778212;0.177378;0.176888;0.1763851;0.175875;0.1753162;0.1746834;0.1740015;0.1733314;0.172702;0.1720836;0.1714675;0.1708573;0.1702092;0.1695273;0.1688988;0.1682566;0.1676136;0.1669855;0.166357;0.1657279;0.1650505;0.1643873;0.1637406;0.163048;0.1623997;0.1617803;0.1611625;0.1605764;0.1600334;0.1594655;0.1589357;0.1584512;0.1579899;0.1575092;0.1570476;0.1566289;0.1562283;0.1558179;0.1554678;0.1551978;0.1550184;0.1431916;0.1432683;0.1433762;0.1435269;0.1436991;0.1439184;0.144178;0.1445057;0.1449548;0.1455308;0.1462506;0.1471825;0.148364;0.1498678;0.1516657;0.1537559;0.1561818;0.1588539;0.1617478;0.1648742;0.1681753;0.1716758;0.1753933;0.1792771;0.1833913;0.1876938;0.192149;0.1967763;0.2014139;0.2060099;0.2105079;0.2147139;0.2185999;0.2221629;0.2254656;0.2286325;0.2317429;0.234898;0.2381988;0.2416062;0.2451091;0.2486453;0.2520002;0.2551609;0.2580463;0.2606376;0.2629389;0.2649762;0.2668062;0.2684771;0.2699648;0.2712549;0.2722681;0.2728997;0.2730629;0.2726252;0.2715314;0.2697528;0.2673783;0.2644381;0.2610919;0.2575637;0.253954;0.2504372;0.247122;0.2439942;0.2411428;0.238539;0.236131;0.2339259;0.231896;0.2300057;0.2282428;0.2265886;0.2250739;0.2236447;0.2223169;0.2211141;0.219993;0.2189602;0.2180122;0.2171414;0.2163283;0.2155467;0.2147842;0.2140249;0.2132603;0.212525;0.2117842;0.211055;0.2103308;0.2096092;0.2089225;0.2082836;0.2076956;0.2071875;0.2067907;0.206483;0.2062898;0.2062108;0.2062449;0.2063943;0.2066641;0.2070697;0.2075933;0.2082816;0.2091087;0.2101063;0.2112887;0.212646;0.2142195;0.2159839;0.2179639;0.2201909;0.2226034;0.2252558;0.2281146;0.2311388;0.2344106;0.2377582;0.2411927;0.2447848;0.2484333;0.2522661;0.2561892;0.2601737;0.2643014;0.2683729;0.2724262;0.2764632;0.2803195;0.2840931;0.2877217;0.2912422;0.2947265;0.2981099;0.3015061;0.3049782;0.3085274;0.3123799;0.3165171;0.321059;0.326197;0.3316922;0.3376569;0.3439648;0.3505217;0.357559;0.3650281;0.3730501;0.3820169;0.391457;0.4017665;0.4125446;0.4236923;0.4352787;0.4468346;0.458532;0.4703572;0.4818975;0.4932192;0.5038719;0.5139537;0.5233815;0.5320833;0.5401261;0.5476325;0.5543647;0.5605981;0.5660888;0.5709825;0.5753305;0.5790284;0.5822945;0.5850748;0.5874541;0.5894484;0.5911582;0.5925423;0.593726;0.594698;0.5954657;0.5960175;0.5963198;0.59642;0.5962939;0.5959162;0.5953471;0.5945732;0.5935822;0.592425;0.5910795;0.5895889;0.5880386;0.5863767;0.5846822;0.5829331;0.5811372;0.579245;0.5772687;0.5752741;0.5732107;0.5711973;0.5691911;0.5671431;0.565164;0.5631738;0.5612519;0.5592858;0.5573722;0.5555835;0.5538694;0.5522277;0.5506975;0.5492436;0.5479078;0.5466884;0.5455509;0.5445933;0.5435573;0.5426836;0.541868;0.5411003;0.5404049;0.5397201;0.5390614;0.5384671;0.5378721;0.5372943;0.5367618;0.5362536;0.5358201;0.5353938;0.5349309;0.5344124;0.5337725;0.5330592;0.5322936;0.5314279;0.5304462;0.5293745;0.528212;0.5269541;0.5256208;0.5241883;0.5226511;0.5210686;0.5194032;0.5176586;0.5158809;0.5140618;0.5122306;0.5103719;0.5085309;0.5067659;0.5050508;0.5034107;0.5018182;0.5002593;0.4987036;0.497054;0.4953433;0.4935674;0.491795;0.490087;0.4884671;0.4869522;0.4855196;0.4841109;0.4827492;0.4814146;0.48016;0.4789729;0.4778782;0.4769439;0.4761841;0.4756234;0.4753063;0.4752124;0.4753862;0.4758131;0.4763423;0.477009;0.4776881;0.4784874;0.4795196;0.4806974;0.4822004;0.4840017;0.4861777;0.4887275;0.4916845;0.4951729;0.4990529;0.5033399;0.5078174;0.5124407;0.5171806;0.5220144;0.5270248;0.5322693;0.5374658;0.542486;0.5471457;0.5512868;0.5549914;0.5583896;0.5614532;0.5642922;0.5669323;0.5694004;0.5715242;0.573238;0.5742315;0.5740407;0.5728651;0.5704594;0.5673527;0.5640604;0.5609238;0.5584182;0.5566619;0.5557688;0.5555964;0.5559637;0.5567994;0.5578631;0.5590416;0.5600785;0.5608954;0.5611799;0.560768;0.5596298;0.5577149;0.5553495;0.5528359;0.5503444;0.5480599;0.5461088;0.5443584;0.5428257;0.5415241;0.5403559;0.5393597;0.5384588;0.5376303;0.5368304;0.5360116;0.5351445;0.5342107;0.5332079;0.5321779;0.5311446;0.5301114;0.5291036;0.5281349;0.5271485;0.5261536;0.5251252;0.5240009;0.5227973;0.5215245;0.5201993;0.5188233;0.5174017;0.5159773;0.5145013;0.5129958;0.5115004;0.5100327;0.508589;0.5071732;0.5058375;0.5046455;0.5036423;0.5028102;0.5022329;0.5019612;0.5020295;0.5023989;0.5030961;0.504214;0.5057623;0.5078211;0.5104387;0.5137049;0.5176923;0.522473;0.528138;0.5346999;0.542358;0.5512077;0.5612401;0.5726439;0.5854564;0.5995977;0.6150212;0.6316233;0.6491356;0.6674338;0.6860965;0.7048419;0.7235065;0.7415044;0.7587672;0.7749798;0.7902449;0.8043669;0.817361;0.8292497;0.8398014;0.8492019;0.8573387;0.8642411;0.8697718;0.8741237;0.8773286;0.8792406;0.8800993;0.879989;0.8789794;0.8770732;0.8745021;0.8713743;0.8676959;0.8637062;0.8594532;0.8549235;0.8502591;0.8455758;0.8407364;0.8359339;0.8311125;0.8262978;0.8214819;0.8166447;0.8119048;0.8071241;0.8023227;0.797491;0.7927102;0.7879617;0.7831842;0.7784809;0.7738883;0.7694445;0.7651587;0.7611228;0.7572402;0.7536183;0.7503102;0.747358;0.7447228;0.7424462;0.7406253;0.7391726;0.7381055;0.7374266;0.7372063;0.7374588;0.7381493;0.7392004;0.7407383;0.7427152;0.7450362;0.7476942;0.7506515;0.7539645;0.7575098;0.7612309;0.7651297;0.7691099;0.7731763;0.7772132;0.7811033;0.7848233;0.7883976;0.7916378;0.794728;0.7973973;0.7998776;0.8019659;0.8037788;0.8055469;0.8070606;0.8086338;0.8099913;0.8115094;0.8128655;0.8142602;0.8156139;0.8168586;0.8180745;0.8192261;0.8203395;0.8213602;0.8223819;0.8233233;0.8242316;0.8250503;0.8257659;0.8264142;0.8269336;0.8273912;0.8276541;0.8278546;0.8280562;0.8281406;0.8281601;0.828051;0.8277957;0.8274215;0.8268681;0.8262885;0.8255345;0.8247651;0.823916;0.8231943;0.8224582;0.8219259;0.8212089;0.8203089;0.8192593;0.8179615;0.8165887;0.8148745;0.8131436;0.8112449;0.8094462;0.807759;0.8061593;0.8044662;0.8027133;0.8009198;0.799082;0.7973158;0.7953758;0.7934672;0.7912978;0.7891247;0.7868829;0.7845569;0.782177;0.7796797;0.7772428;0.7748039;0.772468;0.7701067;0.7678452;0.765747;0.7636945;0.7617009;0.7597075;0.7578463;0.7561498;0.7546046;0.7532452;0.7519907;0.7509253;0.7501317;0.7496049;0.7493038;0.7493827;0.7497823;0.7506679;0.7519078;0.7537349;0.7560041;0.75894;0.7623259;0.7663955;0.7709991;0.776142;0.7819037;0.7880926;0.7947074;0.8016686;0.8088907;0.8162181;0.8237029;0.8311244;0.8386193;0.8458542;0.8529364;0.8596128;0.865805;0.8713354;0.8761243;0.8802126;0.8840148;0.8874602;0.8905809;0.8936814;0.8968192;0.8998637;0.9031646;0.9069516;0.9114115;0.9164981;0.9220824;0.9279033;0.9335542;0.9386431;0.9423207;0.9439132;0.9432178;0.9400162;0.9352905;0.9301347;0.9253967;0.9221688;0.9202052;0.9192536;0.919143;0.9196202;0.9205567;0.9221051;0.9244033;0.9273382;0.931076;0.9353175;0.9397262;0.9436888;0.9462684;0.946913;0.9451963;0.9417834;0.9376587;0.9339747;0.9313052;0.9297631;0.9291149;0.9290753;0.9293693;0.9296674;0.9296641;0.9296687;0.9297869;0.9300244;0.9302635;0.9307854;0.9312083;0.9317117;0.9322835;0.9328567;0.9335078;0.9343552;0.935222;0.9361311;0.9371442;0.9384226;0.9397271;0.9412517;0.9429886;0.9450086;0.9471226;0.9492959;0.9517217;0.9542336;0.9568489;0.9595426;0.9623438;0.9652129;0.9682194;0.9713385;0.9744689;0.9777108;0.9811414;0.9847175;0.9883546;0.9920349;0.9958267;0.9996623;10.035.157;10.073.607;1.011.218;10.152.086;10.194.112;10.235.311;10.274.832;10.312.963;10.349.679;10.383.283;10.415.485;10.446.938;10.477.463;10.508.004;10.533.514;10.557.197;10.578.203;10.599.562;10.619.645;1.063.494;10.647.916;10.659.583;10.668.348;10.675.564;10.681.804;10.683.451;10.679.654
